Frequency,Channel A,Channel C
(ms),(V),(V)

-250.12603078,0.36973510,0.15837500
-250.02603079,0.36534000,0.15568920
-249.92603079,0.35874740,0.15355270
-249.82603079,0.35215480,0.15248440
-249.72603079,0.34769870,0.14659380
-249.62603080,0.34220490,0.14393850
-249.52603080,0.33671100,0.14232080
-249.42603080,0.33231600,0.13804790
-249.32603080,0.32572340,0.13536200
-249.22603081,0.32132830,0.13215720
-249.12603081,0.31473570,0.13215720
-249.02603081,0.30918080,0.12947140
-248.92603081,0.30258820,0.12626660
-248.82603082,0.29709440,0.12251250
-248.72603082,0.29269930,0.11982660
-248.62603082,0.28610670,0.11717130
-248.52603082,0.28171160,0.11555370
-248.42603083,0.27511900,0.11073130
-248.32603083,0.26956420,0.10484070
-248.22603083,0.26407030,0.10432180
-248.12603083,0.25747770,0.10163590
-248.02603084,0.25308260,0.10218530
-247.92603084,0.24649000,0.10163590
-247.82603084,0.24209500,0.09791234
-247.72603084,0.23660110,0.09681357
-247.62603085,0.23104630,0.09308998
-247.52603085,0.22445370,0.09040410
-247.42603085,0.21895980,0.08771823
-247.32603085,0.21236720,0.08130875
-247.22603086,0.20797220,0.07221340
-247.12603086,0.20357710,0.06684165
-247.02603086,0.19698450,0.06418630
-246.92603086,0.19142960,0.06150043
-246.82603087,0.18593580,0.05988280
-246.72603087,0.17934320,0.05881455
-246.62603087,0.17384930,0.05509095
-246.52603087,0.16725670,0.05240508
-246.42603088,0.16286170,0.04920034
-246.32603088,0.15626910,0.04651447
-246.22603088,0.15181300,0.04382859
-246.12603088,0.14631910,0.04169210
-246.02603089,0.14192410,0.04010499
-245.92603089,0.13313390,0.03686973
-245.82603089,0.12873890,0.03635087
-245.72603089,0.12544260,0.02939202
-245.62603090,0.11885000,0.02511903
-245.52603090,0.11219630,0.02295202
-245.42603090,0.10670250,0.02188377
-245.32603090,0.10120860,0.02081553
-245.22603091,0.09571481,0.02029667
-245.12603091,0.09022097,0.01974728
-245.02603091,0.08582591,0.01761079
-244.92603091,0.07697473,0.01333781
-244.82603092,0.07148089,0.01333781
-244.72603092,0.06818459,0.01278843
-244.62603092,0.06159199,0.00958369
-244.52603092,0.05719692,0.00796606
-244.42603093,0.05060432,0.00851544
-244.32603093,0.04511049,0.00637895
-244.22603093,0.03961665,0.00582957
-244.12603093,0.03516054,0.00369308
-244.02603094,0.02856794,0.00262483
-243.92603094,0.02307411,0.00155659
-243.82603094,0.01758027,0.00100720
-243.72603094,0.01208644,-0.00057990
-243.62603095,0.00659260,-0.00164815
-243.52603095,0.00219753,-0.00164815
-243.42603095,-0.00445611,-0.00378464
-243.32603095,-0.01104871,-0.00540227
-243.22603096,-0.01544378,-0.00592113
-243.12603096,-0.02093761,-0.00592113
-243.02603096,-0.02533268,-0.00753876
-242.92603096,-0.03082652,-0.00915639
-242.82603097,-0.03851788,-0.01074350
-242.72603097,-0.04407276,-0.01074350
-242.62603097,-0.04846783,-0.01181174
-242.52603097,-0.05506043,-0.01236113
-242.42603098,-0.05835673,-0.01397876
-242.32603098,-0.06494933,-0.01504700
-242.22603098,-0.07044317,-0.01556586
-242.12603098,-0.07593700,-0.01718349
-242.02603099,-0.08039311,-0.01983885
-241.92603099,-0.08588695,-0.01983885
-241.82603099,-0.09138078,-0.02307411
-241.72603100,-0.09687462,-0.02414235
-241.62603100,-0.10456600,-0.02572946
-241.52603100,-0.10786230,-0.02679770
-241.42603100,-0.11335610,-0.03003296
-241.32603101,-0.11891100,-0.02948358
-241.22603101,-0.12550360,-0.03268832
-241.12603101,-0.12879990,-0.03430595
-241.02603101,-0.13429370,-0.03592357
-240.92603102,-0.13868880,-0.03699182
-240.82603102,-0.14308390,-0.03964717
-240.72603102,-0.14967650,-0.04178366
-240.62603102,-0.15633010,-0.04126480
-240.52603103,-0.16072520,-0.04446954
-240.42603103,-0.16621900,-0.04660603
-240.32603103,-0.17171280,-0.04874252
-240.22603103,-0.17610790,-0.05036015
-240.12603104,-0.18160180,-0.05142840
-240.02603104,-0.18599680,-0.05411427
-239.92603104,-0.19149070,-0.05356489
-239.82603104,-0.19484800,-0.05625076
-239.72603105,-0.20144060,-0.05893664
-239.62603105,-0.20803320,-0.06000488
-239.52603105,-0.21132950,-0.06372848
-239.42603105,-0.21682330,-0.06479673
-239.32603106,-0.22121840,-0.06589550
-239.22603106,-0.22781100,-0.07016848
-239.12603106,-0.23446460,-0.06961909
-239.02603106,-0.23776100,-0.07068734
-238.92603107,-0.24215600,-0.07285435
-238.82603107,-0.24764980,-0.07444146
-238.72603107,-0.25314370,-0.07605909
-238.62603107,-0.25753880,-0.07764620
-238.52603108,-0.26193380,-0.07712734
-238.42603108,-0.26632890,-0.07926382
-238.32603108,-0.27072400,-0.07978269
-238.22603108,-0.27627890,-0.08140032
-238.12603109,-0.28177270,-0.08353680
-238.02603109,-0.28616770,-0.08408619
-237.92603109,-0.29056280,-0.08674154
-237.82603109,-0.29495790,-0.08729093
-237.72603110,-0.30264930,-0.08835918
-237.62603110,-0.30704430,-0.08890855
-237.52603110,-0.31259920,-0.09156391
-237.42603110,-0.31699420,-0.09156391
-237.32603111,-0.32029060,-0.09370040
-237.22603111,-0.32468560,-0.09476864
-237.12603111,-0.33017950,-0.09318154
-237.02603111,-0.33457450,-0.09318154
-236.92603112,-0.34006840,-0.09531803
-236.82603112,-0.34226590,-0.09638628
-236.72603112,-0.34666100,-0.09745452
-236.62603112,-0.35221580,-0.09638628
-236.52603113,-0.35661090,-0.09852277
-236.42603113,-0.36320350,-0.10014040
-236.32603113,-0.36649980,-0.10065930
-236.22603113,-0.37089490,-0.10120860
-236.12603114,-0.37528990,-0.10065930
-236.02603114,-0.38078380,-0.10172750
-235.92603114,-0.38517890,-0.10065930
-235.82603114,-0.38737640,-0.09907215
-235.72603115,-0.39512880,-0.10014040
-235.62603115,-0.39842510,-0.09800391
-235.52603115,-0.40282020,-0.09852277
-235.42603115,-0.40501770,-0.09852277
-235.32603116,-0.40941280,-0.09907215
-235.22603116,-0.41380780,-0.10014040
-235.12603116,-0.41820290,-0.10065930
-235.02603116,-0.42479550,-0.10120860
-234.92603117,-0.42589430,-0.10120860
-234.82603117,-0.43254790,-0.10120860
-234.72603117,-0.43474540,-0.10172750
-234.62603117,-0.43804170,-0.10172750
-234.52603118,-0.44133810,-0.09959102
-234.42603118,-0.44793060,-0.09800391
-234.32603118,-0.45012820,-0.09907215
-234.22603118,-0.45672080,-0.09959102
-234.12603119,-0.45891830,-0.09800391
-234.02603119,-0.46551090,-0.09693566
-233.92603119,-0.46667070,-0.08784031
-233.82603119,-0.46996700,-0.08835918
-233.72603120,-0.47546090,-0.07337321
-233.62603120,-0.47875720,-0.07605909
-233.52603120,-0.48315220,-0.07550970
-233.42603120,-0.48754730,-0.07605909
-233.32603121,-0.48974480,-0.07605909
-233.22603121,-0.49413990,-0.07819558
-233.12603121,-0.49523870,-0.07926382
-233.02603121,-0.50183130,-0.07926382
-232.92603122,-0.50512750,-0.08140032
-232.82603122,-0.50848490,-0.08140032
-232.72603122,-0.51288000,-0.08246856
-232.62603122,-0.51617630,-0.07764620
-232.52603123,-0.52057140,-0.07819558
-232.42603123,-0.52386770,-0.07550970
-232.32603123,-0.52826270,-0.07871445
-232.22603123,-0.53046020,-0.07819558
-232.12603124,-0.53375660,-0.08088145
-232.02603124,-0.53705290,-0.07871445
-231.92603124,-0.54144790,-0.07764620
-231.82603125,-0.54364540,-0.07764620
-231.72603125,-0.54920040,-0.08088145
-231.62603125,-0.55139790,-0.08301795
-231.52603125,-0.55359540,-0.08301795
-231.42603126,-0.55689170,-0.07819558
-231.32603126,-0.56018800,-0.07657795
-231.22603126,-0.56458310,-0.07764620
-231.12603126,-0.56787940,-0.08033207
-231.02603127,-0.57117570,-0.07926382
-230.92603127,-0.57337320,-0.07230496
-230.82603127,-0.57557080,-0.06855085
-230.72603127,-0.57996580,-0.06641436
-230.62603128,-0.58216330,-0.06589550
-230.52603128,-0.58442190,-0.06372848
-230.42603128,-0.58771820,-0.07123672
-230.32603128,-0.59101450,-0.06961909
-230.22603129,-0.59540960,-0.06641436
-230.12603129,-0.59650840,-0.06266023
-230.02603129,-0.60090340,-0.06214137
-229.92603129,-0.60310100,-0.06107313
-229.82603130,-0.60529850,-0.06052374
-229.72603130,-0.60749600,-0.05893664
-229.62603130,-0.61189110,-0.05731901
-229.52603130,-0.61408870,-0.05731901
-229.42603131,-0.61628620,-0.05411427
-229.32603131,-0.61738490,-0.05463313
-229.22603131,-0.62293980,-0.05356489
-229.12603131,-0.62293980,-0.05142840
-229.02603132,-0.62733490,-0.05036015
-228.92603132,-0.62843360,-0.03751068
-228.82603132,-0.63173000,-0.02896472
-228.72603132,-0.63392750,-0.02948358
-228.62603133,-0.63722380,-0.02841533
-228.52603133,-0.64052010,-0.02786595
-228.42603133,-0.64271760,-0.02734709
-228.32603133,-0.64381640,-0.02627884
-228.22603134,-0.64601390,-0.02627884
-228.12603134,-0.64821140,-0.02521060
-228.02603134,-0.65150770,-0.02572946
-227.92603134,-0.65040900,-0.02466121
-227.82603135,-0.65480410,-0.02359297
-227.72603135,-0.65700160,-0.02145648
-227.62603135,-0.66029790,-0.02038823
-227.52603135,-0.66145770,-0.02145648
-227.42603136,-0.66255650,-0.02093761
-227.32603136,-0.66475400,-0.01983885
-227.22603136,-0.66695150,-0.01877060
-227.12603136,-0.67024780,-0.02038823
-227.02603137,-0.67244540,-0.01931999
-226.92603137,-0.67354410,-0.01877060
-226.82603137,-0.67244540,-0.01718349
-226.72603137,-0.67793920,-0.01825174
-226.62603138,-0.67903790,-0.01877060
-226.52603138,-0.68013670,-0.01718349
-226.42603138,-0.67903790,-0.01663411
-226.32603138,-0.68453180,-0.01770236
-226.22603139,-0.68453180,-0.01825174
-226.12603139,-0.68453180,-0.01718349
-226.02603139,-0.68563060,-0.01718349
-225.92603139,-0.68892690,-0.01663411
-225.82603140,-0.69112440,-0.01718349
-225.72603140,-0.69222320,-0.01770236
-225.62603140,-0.69332190,-0.01663411
-225.52603140,-0.69442070,-0.01611525
-225.42603141,-0.69442070,-0.01611525
-225.32603141,-0.69771700,-0.01611525
-225.22603141,-0.69881580,-0.01449762
-225.12603141,-0.69881580,-0.01556586
-225.02603142,-0.69997560,-0.01611525
-224.92603142,-0.70327190,-0.01556586
-224.82603142,-0.70107440,-0.01556586
-224.72603142,-0.70437060,-0.01504700
-224.62603143,-0.70546940,-0.01556586
-224.52603143,-0.70546940,-0.01449762
-224.42603143,-0.70656820,-0.01449762
-224.32603143,-0.70656820,-0.01397876
-224.22603144,-0.70876570,-0.01449762
-224.12603144,-0.70876570,-0.01449762
-224.02603144,-0.71316080,-0.01449762
-223.92603144,-0.71096320,-0.01556586
-223.82603145,-0.71316080,-0.01449762
-223.72603145,-0.71206200,-0.01397876
-223.62603145,-0.71206200,-0.01287999
-223.52603145,-0.71425960,-0.01397876
-223.42603146,-0.71425960,-0.01342937
-223.32603146,-0.71535830,-0.01504700
-223.22603146,-0.71425960,-0.01342937
-223.12603146,-0.71645710,-0.01342937
-223.02603147,-0.71645710,-0.01504700
-222.92603147,-0.71535830,-0.01287999
-222.82603147,-0.71865460,-0.01287999
-222.72603147,-0.71975340,-0.01504700
-222.62603148,-0.71755580,-0.01342937
-222.52603148,-0.71755580,-0.01342937
-222.42603148,-0.71865460,-0.01342937
-222.32603149,-0.71755580,-0.01397876
-222.22603149,-0.71865460,-0.01397876
-222.12603149,-0.71975340,-0.01129288
-222.02603149,-0.71975340,-0.01342937
-221.92603150,-0.72085210,-0.01287999
-221.82603150,-0.72085210,-0.01287999
-221.72603150,-0.72085210,-0.01287999
-221.62603150,-0.71975340,-0.01342937
-221.52603151,-0.72085210,-0.01181174
-221.42603151,-0.72195090,-0.01342937
-221.32603151,-0.71975340,-0.01236113
-221.22603151,-0.72085210,-0.01129288
-221.12603152,-0.71975340,-0.01236113
-221.02603152,-0.71755580,-0.01287999
-220.92603152,-0.71975340,-0.01287999
-220.82603152,-0.71865460,-0.01236113
-220.72603153,-0.71645710,-0.01129288
-220.62603153,-0.71975340,-0.01181174
-220.52603153,-0.71535830,-0.01236113
-220.42603153,-0.71645710,-0.01236113
-220.32603154,-0.71755580,-0.01287999
-220.22603154,-0.71645710,-0.01129288
-220.12603154,-0.71535830,-0.00967525
-220.02603154,-0.71535830,-0.01129288
-219.92603155,-0.71316080,-0.01181174
-219.82603155,-0.71206200,-0.01181174
-219.72603155,-0.71316080,-0.01022464
-219.62603155,-0.71096320,-0.01129288
-219.52603156,-0.71096320,-0.01181174
-219.42603156,-0.70876570,-0.01129288
-219.32603156,-0.70986450,-0.01074350
-219.22603156,-0.70876570,-0.01129288
-219.12603157,-0.70766690,-0.01129288
-219.02603157,-0.70656820,-0.01129288
-218.92603157,-0.70656820,-0.01129288
-218.82603157,-0.70327190,-0.01181174
-218.72603158,-0.70437060,-0.01129288
-218.62603158,-0.70327190,-0.01181174
-218.52603158,-0.69881580,-0.01129288
-218.42603158,-0.70217310,-0.01022464
-218.32603159,-0.69771700,-0.01074350
-218.22603159,-0.69661820,-0.01129288
-218.12603159,-0.69771700,-0.01022464
-218.02603159,-0.69661820,-0.00967525
-217.92603160,-0.69332190,-0.01129288
-217.82603160,-0.69222320,-0.01074350
-217.72603160,-0.69222320,-0.01074350
-217.62603160,-0.69002560,-0.00967525
-217.52603161,-0.68782810,-0.01129288
-217.42603161,-0.68672930,-0.01074350
-217.32603161,-0.68453180,-0.01022464
-217.22603161,-0.68343310,-0.01074350
-217.12603162,-0.68343310,-0.01074350
-217.02603162,-0.67793920,-0.01129288
-216.92603162,-0.67793920,-0.01074350
-216.82603162,-0.67684040,-0.01022464
-216.72603163,-0.67464290,-0.01074350
-216.62603163,-0.67354410,-0.01074350
-216.52603163,-0.67134660,-0.00915639
-216.42603163,-0.66805030,-0.01022464
-216.32603164,-0.66914900,-0.00915639
-216.22603164,-0.66585280,-0.00915639
-216.12603164,-0.66365520,-0.00967525
-216.02603164,-0.66255650,-0.00967525
-215.92603165,-0.66029790,-0.00915639
-215.82603165,-0.65700160,-0.00915639
-215.72603165,-0.65480410,-0.00967525
-215.62603165,-0.65370530,-0.00915639
-215.52603166,-0.65150770,-0.00967525
-215.42603166,-0.65150770,-0.00808815
-215.32603166,-0.64601390,-0.00915639
-215.22603166,-0.64381640,-0.00967525
-215.12603167,-0.64381640,-0.00967525
-215.02603167,-0.64052010,-0.01022464
-214.92603167,-0.63832250,-0.01022464
-214.82603167,-0.63722380,-0.00915639
-214.72603168,-0.63282870,-0.00860701
-214.62603168,-0.63282870,-0.00808815
-214.52603168,-0.62953240,-0.00860701
-214.42603168,-0.62623610,-0.00860701
-214.32603169,-0.62403860,-0.00860701
-214.22603169,-0.62068120,-0.00808815
-214.12603169,-0.61738490,-0.00753876
-214.02603169,-0.61738490,-0.00808815
-213.92603170,-0.61408870,-0.00860701
-213.82603170,-0.61079230,-0.00808815
-213.72603170,-0.60749600,-0.00808815
-213.62603170,-0.60419970,-0.00860701
-213.52603171,-0.60090340,-0.00808815
-213.42603171,-0.59870590,-0.00808815
-213.32603171,-0.59760710,-0.00860701
-213.22603171,-0.59540960,-0.00753876
-213.12603172,-0.59101450,-0.00701990
-213.02603172,-0.58661940,-0.00753876
-212.92603172,-0.58442190,-0.00701990
-212.82603173,-0.58216330,-0.00647052
-212.72603173,-0.57996580,-0.00860701
-212.62603173,-0.57557080,-0.00860701
-212.52603173,-0.57117570,-0.00753876
-212.42603174,-0.57007690,-0.00753876
-212.32603174,-0.56568180,-0.00753876
-212.22603174,-0.56458310,-0.00701990
-212.12603174,-0.56018800,-0.00701990
-212.02603175,-0.55689170,-0.00701990
-211.92603175,-0.55469420,-0.00701990
-211.82603175,-0.55029910,-0.00701990
-211.72603175,-0.54810150,-0.00701990
-211.62603176,-0.54364540,-0.00753876
-211.52603176,-0.54034910,-0.00753876
-211.42603176,-0.53705290,-0.00808815
-211.32603176,-0.53485530,-0.00701990
-211.22603177,-0.52936150,-0.00592113
-211.12603177,-0.52606520,-0.00860701
-211.02603177,-0.52386770,-0.00647052
-210.92603177,-0.52057140,-0.00808815
-210.82603178,-0.51507750,-0.00753876
-210.72603178,-0.51068250,-0.00592113
-210.62603178,-0.50738610,-0.00647052
-210.52603178,-0.50402880,-0.00753876
-210.42603179,-0.50183130,-0.00647052
-210.32603179,-0.49523870,-0.00647052
-210.22603179,-0.49304110,-0.00647052
-210.12603179,-0.49084360,-0.00753876
-210.02603180,-0.48644850,-0.00701990
-209.92603180,-0.48205350,-0.00647052
-209.82603180,-0.47765840,-0.00592113
-209.72603180,-0.47436210,-0.00540227
-209.62603181,-0.47106580,-0.00701990
-209.52603181,-0.46776950,-0.00647052
-209.42603181,-0.46331340,-0.00647052
-209.32603181,-0.46001710,-0.00753876
-209.22603182,-0.45562200,-0.00647052
-209.12603182,-0.45012820,-0.00647052
-209.02603182,-0.44463430,-0.00540227
-208.92603182,-0.44133810,-0.00592113
-208.82603183,-0.43694300,-0.00592113
-208.72603183,-0.43364670,-0.00592113
-208.62603183,-0.42925160,-0.00647052
-208.52603183,-0.42699300,-0.00592113
-208.42603184,-0.42149920,-0.00592113
-208.32603184,-0.41710410,-0.00753876
-208.22603184,-0.41380780,-0.00540227
-208.12603184,-0.40721520,-0.00592113
-208.02603185,-0.40501770,-0.00485289
-207.92603185,-0.40172140,-0.00592113
-207.82603185,-0.39512880,-0.00540227
-207.72603185,-0.39073370,-0.00485289
-207.62603186,-0.38847510,-0.00485289
-207.52603186,-0.38517890,-0.00540227
-207.42603186,-0.37968500,-0.00540227
-207.32603186,-0.37309240,-0.00647052
-207.22603187,-0.36979610,-0.00592113
-207.12603187,-0.36540100,-0.00592113
-207.02603187,-0.36100600,-0.00433403
-206.92603187,-0.35770970,-0.00592113
-206.82603188,-0.35221580,-0.00592113
-206.72603188,-0.34666100,-0.00647052
-206.62603188,-0.34116710,-0.00540227
-206.52603188,-0.33787080,-0.00485289
-206.42603189,-0.33457450,-0.00647052
-206.32603189,-0.32688320,-0.00592113
-206.22603189,-0.32248810,-0.00540227
-206.12603189,-0.31809300,-0.00592113
-206.02603190,-0.31369800,-0.00485289
-205.92603190,-0.31034060,-0.00540227
-205.82603190,-0.30484680,-0.00485289
-205.72603190,-0.30045170,-0.00540227
-205.62603191,-0.29605660,-0.00485289
-205.52603191,-0.29056280,-0.00485289
-205.42603191,-0.28506900,-0.00433403
-205.32603191,-0.27847640,-0.00647052
-205.22603192,-0.27518010,-0.00378464
-205.12603192,-0.27072400,-0.00433403
-205.02603192,-0.26523010,-0.00485289
-204.92603192,-0.26083510,-0.00433403
-204.82603193,-0.25534120,-0.00485289
-204.72603193,-0.25314370,-0.00485289
-204.62603193,-0.24655110,-0.00485289
-204.52603193,-0.24105720,-0.00433403
-204.42603194,-0.23666220,-0.00540227
-204.32603194,-0.23220610,-0.00378464
-204.22603194,-0.22451470,-0.00271640
-204.12603194,-0.22011960,-0.00433403
-204.02603195,-0.21682330,-0.00378464
-203.92603195,-0.21132950,-0.00378464
-203.82603195,-0.20473690,-0.00485289
-203.72603195,-0.20034180,-0.00433403
-203.62603196,-0.19484800,-0.00433403
-203.52603196,-0.18929310,-0.00326578
-203.42603196,-0.18489800,-0.00485289
-203.32603197,-0.17940420,-0.00485289
-203.22603197,-0.17500920,-0.00378464
-203.12603197,-0.16951530,-0.00485289
-203.02603197,-0.16512020,-0.00271640
-202.92603198,-0.15852760,-0.00326578
-202.82603198,-0.15297280,-0.00326578
-202.72603198,-0.14857770,-0.00378464
-202.62603198,-0.14088630,-0.00326578
-202.52603199,-0.13868880,-0.00326578
-202.42603199,-0.13209620,-0.00326578
-202.32603199,-0.12660240,-0.00326578
-202.22603199,-0.12220730,-0.00271640
-202.12603200,-0.11671350,-0.00271640
-202.02603200,-0.11115860,-0.00271640
-201.92603200,-0.10676350,-0.00326578
-201.82603200,-0.10017090,-0.00219753
-201.72603201,-0.09467708,-0.00219753
-201.62603201,-0.09028202,-0.00378464
-201.52603201,-0.08368941,-0.00326578
-201.42603201,-0.07929435,-0.00326578
-201.32603202,-0.07483824,-0.00378464
-201.22603202,-0.06824563,-0.00271640
-201.12603202,-0.06275180,-0.00326578
-201.02603202,-0.05725797,-0.00326578
-200.92603203,-0.05176413,-0.00219753
-200.82603203,-0.04627030,-0.00219753
-200.72603203,-0.04077646,-0.00164815
-200.62603203,-0.03522158,-0.00271640
-200.52603204,-0.02862898,-0.00219753
-200.42603204,-0.02533268,-0.00271640
-200.32603204,-0.01544378,-0.00219753
-200.22603204,-0.01214748,-0.00326578
-200.12603205,-0.00885118,-0.00164815
-200.02603205,-0.00225858,-0.00164815
-199.92603205,0.00549384,-0.00219753
-199.82603205,0.00769137,-0.00219753
-199.72603206,0.01538274,-0.00112929
-199.62603206,0.01867904,-0.00219753
-199.52603206,0.02527164,-0.00057990
-199.42603206,0.02966671,-0.00164815
-199.32603207,0.03625931,-0.00271640
-199.22603207,0.04291295,-0.00164815
-199.12603207,0.04730802,-0.00219753
-199.02603207,0.05280185,-0.00164815
-198.92603208,0.05939446,-0.00219753
-198.82603208,0.06378952,-0.00164815
-198.72603208,0.07038213,-0.00164815
-198.62603208,0.07477719,-0.00219753
-198.52603209,0.08143084,-0.00006104
-198.42603209,0.08802344,-0.00112929
-198.32603209,0.09131974,-0.00112929
-198.22603209,0.09681357,-0.00112929
-198.12603210,0.10450490,-0.00112929
-198.02603210,0.10890000,-0.00006104
-197.92603210,0.11549260,-0.00057990
-197.82603210,0.12214630,-0.00112929
-197.72603211,0.12654130,-0.00112929
-197.62603211,0.13313390,-0.00006104
-197.52603211,0.13862780,-0.00057990
-197.42603211,0.14302280,-0.00006104
-197.32603212,0.14851670,-0.00057990
