Frequency,Channel A,Channel C
(ms),(V),(mV)

-250.12913724,0.36973510,52.95446000
-250.02913725,0.36314250,51.07740000
-249.92913725,0.35764860,50.26859000
-249.82913725,0.35435230,49.45977000
-249.72913725,0.34769870,47.58271000
-249.62913726,0.34220490,45.43095000
-249.52913726,0.33451350,44.62214000
-249.42913726,0.33231600,42.47039000
-249.32913726,0.32572340,41.12746000
-249.22913727,0.31913070,40.05921000
-249.12913727,0.31363690,38.16689000
-249.02913727,0.30918080,37.63276000
-248.92913727,0.30368700,36.56452000
-248.82913728,0.29709440,36.28983000
-248.72913728,0.29379810,34.94689000
-248.62913728,0.28390920,33.60395000
-248.52913728,0.28061290,33.06983000
-248.42913729,0.27402030,32.26102000
-248.32913729,0.27066290,30.91808000
-248.22913729,0.26407030,28.76633000
-248.12913729,0.25857650,28.23220000
-248.02913730,0.25308260,27.68282000
-247.92913730,0.24539130,26.08045000
-247.82913730,0.24319370,25.27164000
-247.72913730,0.23550240,23.92870000
-247.62913731,0.22775000,23.65401000
-247.52913731,0.22335490,22.84519000
-247.42913731,0.22005860,22.58576000
-247.32913731,0.21346600,21.77695000
-247.22913732,0.20907090,20.69344000
-247.12913732,0.20357710,18.81638000
-247.02913732,0.19478700,18.00757000
-246.92913732,0.18923210,17.47345000
-246.82913733,0.18373820,16.93932000
-246.72913733,0.17934320,16.38994000
-246.62913733,0.17275060,15.32169000
-246.52913733,0.16835550,13.70406000
-246.42913734,0.16286170,14.23819000
-246.32913734,0.15846660,12.89525000
-246.22913734,0.15071420,12.36113000
-246.12913734,0.14522040,12.08644000
-246.02913735,0.14082530,11.01819000
-245.92913735,0.13423270,9.67525300
-245.82913735,0.13093640,9.93468400
-245.72913735,0.12324500,8.59174600
-245.62913736,0.11549260,7.52350100
-245.52913736,0.11329510,7.78293200
-245.42913736,0.10670250,6.43999500
-245.32913737,0.10230740,5.90587200
-245.22913737,0.09461604,4.28824300
-245.12913737,0.08692467,3.21999700
-245.02913737,0.08472714,3.21999700
-244.92913738,0.07813454,2.13649100
-244.82913738,0.07148089,1.60236800
-244.72913738,0.06708582,1.06824600
-244.62913738,0.06269076,0.53412280
-244.52913739,0.05390062,0.00000000
-244.42913739,0.04950555,0.00000000
-244.32913739,0.04511049,-0.54938340
-244.22913739,0.03961665,-0.54938340
-244.12913740,0.03296301,-1.08350600
-244.02913740,0.02856794,-1.61762900
-243.92913740,0.02307411,-2.15175200
-243.82913740,0.01648150,-2.42644400
-243.72913741,0.01098767,-2.42644400
-243.62913741,0.00549384,-2.96056600
-243.52913741,0.00219753,-2.96056600
-243.42913741,-0.00555488,-4.30350400
-243.32913742,-0.01214748,-3.76938100
-243.22913742,-0.01434501,-5.11231800
-243.12913742,-0.02093761,-5.38701000
-243.02913742,-0.02643145,-5.66170100
-242.92913743,-0.03192528,-6.19582400
-242.82913743,-0.03967769,-6.72994700
-242.72913743,-0.04407276,-7.00463900
-242.62913743,-0.04956660,-8.34757600
-242.52913744,-0.05506043,-8.88169900
-242.42913744,-0.06055427,-9.15639000
-242.32913744,-0.06604810,-9.94994400
-242.22913744,-0.07044317,-10.49933000
-242.12913745,-0.07593700,-10.75876000
-242.02913745,-0.08149188,-11.30814000
-241.92913745,-0.08698571,-12.65108000
-241.82913745,-0.09247955,-12.37639000
-241.72913746,-0.09797338,-13.44463000
-241.62913746,-0.10346720,-14.25345000
-241.52913746,-0.10786230,-15.06226000
-241.42913746,-0.11445490,-15.59639000
-241.32913747,-0.12110850,-15.87108000
-241.22913747,-0.12440480,-16.40520000
-241.12913747,-0.12989870,-17.21401000
-241.02913747,-0.13539250,-17.74814000
-240.92913748,-0.13978760,-18.55695000
-240.82913748,-0.14747890,-19.89989000
-240.72913748,-0.14967650,-20.17458000
-240.62913748,-0.15633010,-20.17458000
-240.52913749,-0.16182400,-20.70870000
-240.42913749,-0.16621900,-21.51752000
-240.32913749,-0.17281160,-22.86045000
-240.22913749,-0.17830540,-23.13515000
-240.12913750,-0.18379930,-23.94396000
-240.02913750,-0.18709560,-25.01221000
-239.92913750,-0.19368820,-25.28690000
-239.82913750,-0.19814430,-25.54633000
-239.72913751,-0.20363810,-25.54633000
-239.62913751,-0.20693440,-26.88927000
-239.52913751,-0.21242830,-28.24747000
-239.42913751,-0.21902090,-28.24747000
-239.32913752,-0.22341590,-29.59040000
-239.22913752,-0.22890980,-29.84983000
-239.12913752,-0.23336590,-30.65865000
-239.02913752,-0.23885970,-30.93334000
-238.92913753,-0.24435360,-32.00158000
-238.82913753,-0.24764980,-32.81040000
-238.72913753,-0.25314370,-31.19277000
-238.62913753,-0.25753880,-31.19277000
-238.52913754,-0.26413140,-32.00158000
-238.42913754,-0.26742770,-32.00158000
-238.32913754,-0.27182270,-31.19277000
-238.22913754,-0.27737760,-32.53571000
-238.12913755,-0.28287140,-32.81040000
-238.02913755,-0.28726650,-33.34452000
-237.92913755,-0.29166160,-34.42803000
-237.82913755,-0.29715540,-34.68746000
-237.72913756,-0.30155050,-34.15334000
-237.62913756,-0.30594550,-34.15334000
-237.52913756,-0.31150040,-33.34452000
-237.42913756,-0.31589550,-33.08509000
-237.32913757,-0.31919180,-34.68746000
-237.22913757,-0.32358690,-34.42803000
-237.12913757,-0.33017950,-35.77097000
-237.02913757,-0.33457450,-35.49627000
-236.92913758,-0.33896960,-36.03040000
-236.82913758,-0.34336470,-36.03040000
-236.72913758,-0.34885850,-36.83921000
-236.62913758,-0.35331460,-36.30509000
-236.52913759,-0.35990720,-36.57978000
-236.42913759,-0.36320350,-37.38860000
-236.32913759,-0.36649980,-37.38860000
-236.22913759,-0.36979610,-37.92271000
-236.12913760,-0.37528990,-37.11390000
-236.02913760,-0.38078380,-38.18215000
-235.92913760,-0.38517890,-38.73153000
-235.82913761,-0.38963500,-38.99096000
-235.72913761,-0.39293130,-39.26565000
-235.62913761,-0.39732630,-39.54035000
-235.52913761,-0.40391890,-39.26565000
-235.42913762,-0.40611650,-40.60859000
-235.32913762,-0.40941280,-40.60859000
-235.22913762,-0.41710410,-40.60859000
-235.12913762,-0.41930170,-41.95153000
-235.02913763,-0.42259800,-42.76034000
-234.92913763,-0.42589430,-42.48565000
-234.82913763,-0.43144910,-42.76034000
-234.72913763,-0.43474540,-42.76034000
-234.62913764,-0.44023930,-43.56916000
-234.52913764,-0.44463430,-44.10328000
-234.42913764,-0.44793060,-43.82859000
-234.32913764,-0.45122690,-44.91210000
-234.22913765,-0.45452330,-45.72091000
-234.12913765,-0.46001710,-46.25504000
-234.02913765,-0.46441220,-46.52972000
-233.92913765,-0.46667070,-46.78915000
-233.82913766,-0.47106580,-46.52972000
-233.72913766,-0.47436210,-45.72091000
-233.62913766,-0.47985590,-46.25504000
-233.52913766,-0.48315220,-46.52972000
-233.42913767,-0.48644850,-45.98034000
-233.32913767,-0.48864610,-45.72091000
-233.22913767,-0.49413990,-46.52972000
-233.12913767,-0.49743620,-46.52972000
-233.02913768,-0.50183130,-46.78915000
-232.92913768,-0.50402880,-47.06385000
-232.82913768,-0.51068250,-48.13209000
-232.72913768,-0.51288000,-48.40678000
-232.62913769,-0.51727500,-48.40678000
-232.52913769,-0.52057140,-48.68148000
-232.42913769,-0.52167010,-48.40678000
-232.32913769,-0.52606520,-48.40678000
-232.22913770,-0.52936150,-49.21560000
-232.12913770,-0.53265780,-49.21560000
-232.02913770,-0.53705290,-48.94091000
-231.92913770,-0.54254670,-50.02441000
-231.82913771,-0.54590400,-50.28385000
-231.72913771,-0.54810150,-50.28385000
-231.62913771,-0.55029910,-51.09266000
-231.52913771,-0.55359540,-51.09266000
-231.42913772,-0.55799050,-51.36735000
-231.32913772,-0.56238560,-52.17617000
-231.22913772,-0.56458310,-51.62679000
-231.12913772,-0.56787940,-51.90147000
-231.02913773,-0.57117570,-52.17617000
-230.92913773,-0.57447200,-51.62679000
-230.82913773,-0.57776830,-51.62679000
-230.72913773,-0.57996580,-51.09266000
-230.62913774,-0.58332310,-51.09266000
-230.52913774,-0.58552070,-51.09266000
-230.42913774,-0.58881700,-50.28385000
-230.32913774,-0.59101450,-49.21560000
-230.22913775,-0.59431080,-46.78915000
-230.12913775,-0.59870590,-39.79978000
-230.02913775,-0.59980460,-37.64803000
-229.92913775,-0.60200220,-37.38860000
-229.82913776,-0.60639730,-37.11390000
-229.72913776,-0.60859480,-36.83921000
-229.62913776,-0.61408870,-36.57978000
-229.52913776,-0.61518740,-35.49627000
-229.42913777,-0.61848370,-35.49627000
-229.32913777,-0.61848370,-35.77097000
-229.22913777,-0.62068120,-35.77097000
-229.12913777,-0.62293980,-34.96215000
-229.02913778,-0.62733490,-35.49627000
-228.92913778,-0.62843360,-35.49627000
-228.82913778,-0.63282870,-34.96215000
-228.72913778,-0.63282870,-34.68746000
-228.62913779,-0.63722380,-34.96215000
-228.52913779,-0.63942130,-34.96215000
-228.42913779,-0.64161880,-33.08509000
-228.32913779,-0.64491520,-33.61922000
-228.22913780,-0.64601390,-33.89390000
-228.12913780,-0.64931020,-33.61922000
-228.02913780,-0.65040900,-33.61922000
-227.92913780,-0.65370530,-32.81040000
-227.82913781,-0.65590280,-32.81040000
-227.72913781,-0.65480410,-31.46746000
-227.62913781,-0.65810040,-30.65865000
-227.52913781,-0.65919910,-30.38396000
-227.42913782,-0.66365520,-30.38396000
-227.32913782,-0.66475400,-29.84983000
-227.22913782,-0.66695150,-30.38396000
-227.12913782,-0.67024780,-30.38396000
-227.02913783,-0.67134660,-29.84983000
-226.92913783,-0.67244540,-29.31571000
-226.82913783,-0.67464290,-29.04102000
-226.72913783,-0.67574170,-29.31571000
-226.62913784,-0.67684040,-28.78159000
-226.52913784,-0.67903790,-29.04102000
-226.42913784,-0.68013670,-29.84983000
-226.32913785,-0.68123550,-28.78159000
-226.22913785,-0.68453180,-28.78159000
-226.12913785,-0.68453180,-28.78159000
-226.02913785,-0.68782810,-28.24747000
-225.92913786,-0.68892690,-26.35514000
-225.82913786,-0.69002560,-25.01221000
-225.72913786,-0.69002560,-24.20339000
-225.62913786,-0.69442070,-23.39458000
-225.52913787,-0.69551940,-22.86045000
-225.42913787,-0.69332190,-22.86045000
-225.32913787,-0.69551940,-20.98339000
-225.22913787,-0.69771700,-19.64046000
-225.12913788,-0.69771700,-19.09107000
-225.02913788,-0.69997560,-19.36577000
-224.92913788,-0.70217310,-18.83164000
-224.82913788,-0.70437060,-17.74814000
-224.72913789,-0.70327190,-18.02283000
-224.62913789,-0.70546940,-16.95458000
-224.52913789,-0.70327190,-16.67989000
-224.42913789,-0.70766690,-16.67989000
-224.32913790,-0.70766690,-16.95458000
-224.22913790,-0.70766690,-16.67989000
-224.12913790,-0.70986450,-16.40520000
-224.02913790,-0.70986450,-16.40520000
-223.92913791,-0.70986450,-16.14577000
-223.82913791,-0.71096320,-15.87108000
-223.72913791,-0.71206200,-15.59639000
-223.62913791,-0.71316080,-15.87108000
-223.52913792,-0.71425960,-15.87108000
-223.42913792,-0.71316080,-15.59639000
-223.32913792,-0.71425960,-15.06226000
-223.22913792,-0.71425960,-15.59639000
-223.12913793,-0.71535830,-15.06226000
-223.02913793,-0.71425960,-15.06226000
-222.92913793,-0.71645710,-15.33695000
-222.82913793,-0.71645710,-15.33695000
-222.72913794,-0.71755580,-14.80283000
-222.62913794,-0.71645710,-14.80283000
-222.52913794,-0.71755580,-14.25345000
-222.42913794,-0.71755580,-14.80283000
-222.32913795,-0.71865460,-13.99402000
-222.22913795,-0.71755580,-14.25345000
-222.12913795,-0.71865460,-13.71933000
-222.02913795,-0.71865460,-13.71933000
-221.92913796,-0.71755580,-13.99402000
-221.82913796,-0.71865460,-13.44463000
-221.72913796,-0.71865460,-12.91051000
-221.62913796,-0.71975340,-13.18520000
-221.52913797,-0.72085210,-12.37639000
-221.42913797,-0.71975340,-12.91051000
-221.32913797,-0.71975340,-12.91051000
-221.22913797,-0.72085210,-12.37639000
-221.12913798,-0.71975340,-12.10170000
-221.02913798,-0.71755580,-12.10170000
-220.92913798,-0.71755580,-12.37639000
-220.82913798,-0.71865460,-11.56757000
-220.72913799,-0.71645710,-12.37639000
-220.62913799,-0.71755580,-11.84227000
-220.52913799,-0.71535830,-11.84227000
-220.42913799,-0.71535830,-11.84227000
-220.32913800,-0.71535830,-11.30814000
-220.22913800,-0.71535830,-11.56757000
-220.12913800,-0.71316080,-11.56757000
-220.02913800,-0.71425960,-11.56757000
-219.92913801,-0.71316080,-11.56757000
-219.82913801,-0.71316080,-11.03345000
-219.72913801,-0.71316080,-11.03345000
-219.62913801,-0.70986450,-10.75876000
-219.52913802,-0.70986450,-10.49933000
-219.42913802,-0.70766690,-10.75876000
-219.32913802,-0.70876570,-10.75876000
-219.22913802,-0.70766690,-10.75876000
-219.12913803,-0.70656820,-11.30814000
-219.02913803,-0.70656820,-11.30814000
-218.92913803,-0.70546940,-10.49933000
-218.82913803,-0.70437060,-10.49933000
-218.72913804,-0.70327190,-10.22464000
-218.62913804,-0.69997560,-10.22464000
-218.52913804,-0.69997560,-11.03345000
-218.42913804,-0.69997560,-10.22464000
-218.32913805,-0.69881580,-10.22464000
-218.22913805,-0.69771700,-10.22464000
-218.12913805,-0.69551940,-10.49933000
-218.02913805,-0.69442070,-10.22464000
-217.92913806,-0.69332190,-10.49933000
-217.82913806,-0.69222320,-10.49933000
-217.72913806,-0.68892690,-9.69051400
-217.62913806,-0.69002560,-9.94994400
-217.52913807,-0.68782810,-9.94994400
-217.42913807,-0.68563060,-10.49933000
-217.32913807,-0.68453180,-9.41582100
-217.22913807,-0.68343310,-9.69051400
-217.12913808,-0.68013670,-9.94994400
-217.02913808,-0.68013670,-10.49933000
-216.92913808,-0.67793920,-9.41582100
-216.82913809,-0.67464290,-9.94994400
-216.72913809,-0.67464290,-9.69051400
-216.62913809,-0.67244540,-9.94994400
-216.52913809,-0.67024780,-9.41582100
-216.42913810,-0.66914900,-9.41582100
-216.32913810,-0.66805030,-9.15639000
-216.22913810,-0.66475400,-9.41582100
-216.12913810,-0.66365520,-9.41582100
-216.02913811,-0.66255650,-9.94994400
-215.92913811,-0.66029790,-9.41582100
-215.82913811,-0.65810040,-9.15639000
-215.72913811,-0.65590280,-8.88169900
-215.62913812,-0.65590280,-9.15639000
-215.52913812,-0.65260650,-8.88169900
-215.42913812,-0.64821140,-9.41582100
-215.32913812,-0.64711270,-8.88169900
-215.22913813,-0.64491520,-8.60700700
-215.12913813,-0.64161880,-9.41582100
-215.02913813,-0.63832250,-9.15639000
-214.92913813,-0.63942130,-8.88169900
-214.82913814,-0.63392750,-8.88169900
-214.72913814,-0.63282870,-8.07288500
-214.62913814,-0.63173000,-8.60700700
-214.52913814,-0.62733490,-8.60700700
-214.42913815,-0.62623610,-8.60700700
-214.32913815,-0.62293980,-8.34757600
-214.22913815,-0.62068120,-8.34757600
-214.12913815,-0.61738490,-8.60700700
-214.02913816,-0.61628620,-8.34757600
-213.92913816,-0.61189110,-8.60700700
-213.82913816,-0.60969350,-8.07288500
-213.72913816,-0.60859480,-8.88169900
-213.62913817,-0.60529850,-8.07288500
-213.52913817,-0.60090340,-8.07288500
-213.42913817,-0.59760710,-8.07288500
-213.32913817,-0.59431080,-8.07288500
-213.22913818,-0.59431080,-7.26407000
-213.12913818,-0.58991580,-8.07288500
-213.02913818,-0.58661940,-7.26407000
-212.92913818,-0.58332310,-7.53876200
-212.82913819,-0.58216330,-7.79819300
-212.72913819,-0.57776830,-8.07288500
-212.62913819,-0.57447200,-7.79819300
-212.52913819,-0.57227440,-7.53876200
-212.42913820,-0.56897810,-7.79819300
-212.32913820,-0.56458310,-7.26407000
-212.22913820,-0.56348430,-7.53876200
-212.12913820,-0.55908920,-7.79819300
-212.02913821,-0.55799050,-6.72994700
-211.92913821,-0.55359540,-7.26407000
-211.82913821,-0.54810150,-7.53876200
-211.72913821,-0.54700280,-7.26407000
-211.62913822,-0.54254670,-7.53876200
-211.52913822,-0.53925040,-7.00463900
-211.42913822,-0.53485530,-7.79819300
-211.32913822,-0.53265780,-7.79819300
-211.22913823,-0.52826270,-7.00463900
-211.12913823,-0.52386770,-7.00463900
-211.02913823,-0.51947260,-7.00463900
-210.92913823,-0.51727500,-7.00463900
-210.82913824,-0.51397870,-7.00463900
-210.72913824,-0.50958370,-7.26407000
-210.62913824,-0.50738610,-7.26407000
-210.52913824,-0.50293000,-6.45525600
-210.42913825,-0.49963370,-7.26407000
-210.32913825,-0.49633740,-6.72994700
-210.22913825,-0.49304110,-7.00463900
-210.12913825,-0.48974480,-7.00463900
-210.02913826,-0.48425100,-6.72994700
-209.92913826,-0.48095470,-6.45525600
-209.82913826,-0.47875720,-6.45525600
-209.72913826,-0.47216460,-6.72994700
-209.62913827,-0.46886830,-6.45525600
-209.52913827,-0.46441220,-6.19582400
-209.42913827,-0.46221460,-6.45525600
-209.32913827,-0.45781960,-6.19582400
-209.22913828,-0.45232570,-6.45525600
-209.12913828,-0.44793060,-6.45525600
-209.02913828,-0.44463430,-6.19582400
-208.92913828,-0.44133810,-7.00463900
-208.82913829,-0.43694300,-6.45525600
-208.72913829,-0.43474540,-5.66170100
-208.62913829,-0.42925160,-5.92113300
-208.52913829,-0.42479550,-6.19582400
-208.42913830,-0.42040040,-5.92113300
-208.32913830,-0.41600540,-5.92113300
-208.22913830,-0.41380780,-5.92113300
-208.12913830,-0.40831400,-6.19582400
-208.02913831,-0.40282020,-6.19582400
-207.92913831,-0.39732630,-5.92113300
-207.82913831,-0.39622760,-5.66170100
-207.72913831,-0.39073370,-6.19582400
-207.62913832,-0.38517890,-5.66170100
-207.52913832,-0.38188250,-5.66170100
-207.42913832,-0.37748750,-5.38701000
-207.32913833,-0.37309240,-5.92113300
-207.22913833,-0.36869730,-6.19582400
-207.12913833,-0.36320350,-5.66170100
-207.02913833,-0.35880850,-5.38701000
-206.92913834,-0.35331460,-5.92113300
-206.82913834,-0.35111710,-5.11231800
-206.72913834,-0.34666100,-5.11231800
-206.62913834,-0.34116710,-5.38701000
-206.52913835,-0.33567330,-5.38701000
-206.42913835,-0.33347580,-5.66170100
-206.32913835,-0.32688320,-5.38701000
-206.22913835,-0.32138930,-5.38701000
-206.12913836,-0.31919180,-5.38701000
-206.02913836,-0.31259920,-5.38701000
-205.92913836,-0.30924180,-5.11231800
-205.82913836,-0.30374800,-5.11231800
-205.72913837,-0.29935290,-4.57819500
-205.62913837,-0.29276030,-4.85288700
-205.52913837,-0.28836530,-5.38701000
-205.42913837,-0.28506900,-4.85288700
-205.32913838,-0.28067390,-4.85288700
-205.22913838,-0.27518010,-4.04407300
-205.12913838,-0.26962520,-4.57819500
-205.02913838,-0.26413140,-5.38701000
-204.92913839,-0.25973630,-5.11231800
-204.82913839,-0.25424240,-4.85288700
-204.72913839,-0.24984740,-5.11231800
-204.62913839,-0.24435360,-4.57819500
-204.52913840,-0.24105720,-4.57819500
-204.42913840,-0.23336590,-4.57819500
-204.32913840,-0.23000850,-5.11231800
-204.22913840,-0.22561350,-5.11231800
-204.12913841,-0.22011960,-4.04407300
-204.02913841,-0.21462580,-4.30350400
-203.92913841,-0.21242830,-4.57819500
-203.82913841,-0.20473690,-3.76938100
-203.72913842,-0.20034180,-4.57819500
-203.62913842,-0.19368820,-4.04407300
-203.52913842,-0.19039190,-4.30350400
-203.42913842,-0.18270050,-4.30350400
-203.32913843,-0.17830540,-4.04407300
-203.22913843,-0.17391040,-3.76938100
-203.12913843,-0.16841660,-3.76938100
-203.02913843,-0.16292270,-3.76938100
-202.92913844,-0.15962640,-3.50995000
-202.82913844,-0.15297280,-4.30350400
-202.72913844,-0.14747890,-3.23525800
-202.62913844,-0.14308390,-3.50995000
-202.52913845,-0.13649130,-3.76938100
-202.42913845,-0.13099740,-3.76938100
-202.32913845,-0.12550360,-3.76938100
-202.22913845,-0.12110850,-3.23525800
-202.12913846,-0.11555370,-3.50995000
-202.02913846,-0.11005980,-3.76938100
-201.92913846,-0.10566480,-3.23525800
-201.82913846,-0.09797338,-2.96056600
-201.72913847,-0.09357832,-3.76938100
-201.62913847,-0.08918325,-3.50995000
-201.52913847,-0.08478818,-3.50995000
-201.42913847,-0.07819558,-3.23525800
-201.32913848,-0.07154194,-3.23525800
-201.22913848,-0.06714687,-2.70113500
-201.12913848,-0.06165303,-2.96056600
-201.02913848,-0.05835673,-2.96056600
-200.92913849,-0.05176413,-3.50995000
-200.82913849,-0.04297400,-2.96056600
-200.72913849,-0.04077646,-2.96056600
-200.62913849,-0.03302405,-2.96056600
-200.52913850,-0.02972775,-2.96056600
-200.42913850,-0.02423391,-3.23525800
-200.32913850,-0.01764131,-3.23525800
-200.22913850,-0.01214748,-2.96056600
-200.12913851,-0.00775241,-2.70113500
-200.02913851,0.00000000,-2.15175200
-199.92913851,0.00329630,-2.70113500
-199.82913851,0.00988890,-2.42644400
-199.72913852,0.01538274,-1.89232100
-199.62913852,0.02087657,-2.70113500
-199.52913852,0.02637041,-2.42644400
-199.42913852,0.03186424,-2.42644400
-199.32913853,0.03735808,-2.15175200
-199.22913853,0.04291295,-1.35819800
-199.12913853,0.04620925,-2.15175200
-199.02913853,0.05280185,-1.89232100
-198.92913854,0.05829569,-1.89232100
-198.82913854,0.06598706,-1.89232100
-198.72913854,0.07257966,-1.89232100
-198.62913854,0.07697473,-1.35819800
-198.52913855,0.08252960,-1.61762900
-198.42913855,0.08692467,-1.89232100
-198.32913855,0.09351727,-2.15175200
-198.22913855,0.10010990,-1.61762900
-198.12913856,0.10560370,-1.08350600
