Frequency,Channel A,Channel C
(ms),(V),(mV)

-250.17534585,0.37083380,87.10780000
-250.07534585,0.36534000,86.57367000
-249.97534586,0.36094490,84.95605000
-249.87534586,0.35545110,81.73605000
-249.77534586,0.35105600,80.11842000
-249.67534586,0.34440240,77.69198000
-249.57534587,0.33890860,76.08960000
-249.47534587,0.33231600,74.19729000
-249.37534587,0.32792090,72.04553000
-249.27534587,0.32242700,69.35966000
-249.17534588,0.31803200,68.01672000
-249.07534588,0.31143940,67.75729000
-248.97534588,0.30478570,66.13966000
-248.87534588,0.30039070,63.45379000
-248.77534589,0.29599560,62.64497000
-248.67534589,0.28830420,62.64497000
-248.57534589,0.28171160,61.30203000
-248.47534589,0.27841530,59.15028000
-248.37534590,0.27402030,58.34147000
-248.27534590,0.26736660,55.65559000
-248.17534590,0.26077400,54.31266000
-248.07534590,0.25637890,51.61152000
-247.97534591,0.25088510,52.42034000
-247.87534591,0.24429250,47.04859000
-247.77534591,0.23769990,45.43095000
-247.67534591,0.23330480,41.93627000
-247.57534592,0.22775000,41.66158000
-247.47534592,0.22225610,40.59333000
-247.37534592,0.21786110,38.71627000
-247.27534592,0.21126850,34.67220000
-247.17534593,0.20577460,33.87864000
-247.07534593,0.20028080,31.98632000
-246.97534593,0.19478700,32.26102000
-246.87534593,0.18923210,28.76633000
-246.77534594,0.18373820,29.57514000
-246.67534594,0.17714560,27.42339000
-246.57534594,0.17165180,25.27164000
-246.47534594,0.16615800,24.72225000
-246.37534595,0.16066410,23.11989000
-246.27534595,0.15626910,21.50226000
-246.17534595,0.14851670,20.15932000
-246.07534595,0.14302280,21.77695000
-245.97534596,0.13643020,19.07581000
-245.87534596,0.13313390,18.00757000
-245.77534596,0.12434380,16.13051000
-245.67534596,0.11994870,15.85582000
-245.57534597,0.11549260,14.23819000
-245.47534597,0.10999880,13.16994000
-245.37534597,0.10450490,10.48407000
-245.27534598,0.09791234,10.48407000
-245.17534598,0.09241851,9.67525300
-245.07534598,0.08582591,8.33231500
-244.97534598,0.08252960,6.43999500
-244.87534599,0.07813454,6.18056300
-244.77534599,0.06928336,5.90587200
-244.67534599,0.06488829,4.83762600
-244.57534599,0.05939446,4.02881200
-244.47534600,0.05280185,3.21999700
-244.37534600,0.04840679,2.68587400
-244.27534600,0.04181419,1.87706000
-244.17534600,0.03625931,0.53412280
-244.07534601,0.03186424,0.25943110
-243.97534601,0.02527164,-0.27469170
-243.87534601,0.02197534,-0.54938340
-243.77534601,0.01208644,-1.35819800
-243.67534602,0.00659260,-2.42644400
-243.57534602,0.00109877,-3.50995000
-243.47534602,-0.00445611,-4.04407300
-243.37534602,-0.00994995,-4.57819500
-243.27534603,-0.01324625,-5.38701000
-243.17534603,-0.01983885,-5.92113300
-243.07534603,-0.02423391,-6.72994700
-242.97534603,-0.03082652,-7.53876200
-242.87534604,-0.03522158,-8.07288500
-242.77534604,-0.04077646,-9.15639000
-242.67534604,-0.04736906,-9.41582100
-242.57534604,-0.05066536,-10.75876000
-242.47534605,-0.05615920,-11.03345000
-242.37534605,-0.06385057,-12.91051000
-242.27534605,-0.06824563,-12.91051000
-242.17534605,-0.07373947,-14.25345000
-242.07534606,-0.07819558,-15.33695000
-241.97534606,-0.08588695,-16.14577000
-241.87534606,-0.08808448,-16.95458000
-241.77534606,-0.09357832,-18.55695000
-241.67534607,-0.10017090,-19.89989000
-241.57534607,-0.10566480,-20.70870000
-241.47534607,-0.11115860,-21.79221000
-241.37534607,-0.11555370,-23.39458000
-241.27534608,-0.12110850,-23.66927000
-241.17534608,-0.12660240,-25.01221000
-241.07534608,-0.13429370,-26.62984000
-240.97534608,-0.13649130,-27.69808000
-240.87534609,-0.14308390,-29.84983000
-240.77534609,-0.14638020,-30.65865000
-240.67534609,-0.15297280,-32.00158000
-240.57534609,-0.15962640,-33.34452000
-240.47534610,-0.16402150,-34.96215000
-240.37534610,-0.16841660,-35.77097000
-240.27534610,-0.17391040,-36.83921000
-240.17534610,-0.17940420,-38.73153000
-240.07534611,-0.18489800,-39.26565000
-239.97534611,-0.18929310,-41.14272000
-239.87534611,-0.19484800,-42.76034000
-239.77534611,-0.20034180,-43.56916000
-239.67534612,-0.20363810,-44.91210000
-239.57534612,-0.21242830,-46.52972000
-239.47534612,-0.21462580,-48.40678000
-239.37534612,-0.21902090,-49.21560000
-239.27534613,-0.22671220,-50.28385000
-239.17534613,-0.23110730,-51.90147000
-239.07534613,-0.23556340,-53.77853000
-238.97534613,-0.24105720,-54.58735000
-238.87534614,-0.24545230,-55.93028000
-238.77534614,-0.24984740,-57.01379000
-238.67534614,-0.25424240,-58.35673000
-238.57534614,-0.26083510,-61.31730000
-238.47534615,-0.26413140,-61.57673000
-238.37534615,-0.26962520,-62.66023000
-238.27534615,-0.27518010,-64.26260000
-238.17534615,-0.27957510,-65.88023000
-238.07534616,-0.28616770,-67.22317000
-237.97534616,-0.28946410,-68.56610000
-237.87534616,-0.29385910,-69.90904000
-237.77534616,-0.29935290,-70.45842000
-237.67534617,-0.30264930,-72.33549000
-237.57534617,-0.31034060,-72.86961000
-237.47534617,-0.31369800,-74.21255000
-237.37534617,-0.31919180,-75.55548000
-237.27534618,-0.32358690,-76.63899000
-237.17534618,-0.32688320,-77.44781000
-237.07534618,-0.33127820,-79.06543000
-236.97534618,-0.33677210,-77.98193000
-236.87534619,-0.34006840,-79.85899000
-236.77534619,-0.34556220,-82.28543000
-236.67534619,-0.35001830,-83.09424000
-236.57534619,-0.35441340,-83.90305000
-236.47534620,-0.35880850,-83.35368000
-236.37534620,-0.36320350,-83.90305000
-236.27534620,-0.36979610,-83.90305000
-236.17534620,-0.37199370,-75.29605000
-236.07534621,-0.37748750,-73.14429000
-235.97534621,-0.38078380,-71.52667000
-235.87534621,-0.38627760,-73.14429000
-235.77534622,-0.39183250,-72.33549000
-235.67534622,-0.39403000,-73.14429000
-235.57534622,-0.39952390,-73.14429000
-235.47534622,-0.40501770,-74.76193000
-235.37534623,-0.40831400,-74.76193000
-235.27534623,-0.41270910,-73.95312000
-235.17534623,-0.41600540,-70.71785000
-235.07534623,-0.42149920,-71.52667000
-234.97534624,-0.42479550,-71.26724000
-234.87534624,-0.43035040,-72.06079000
-234.77534624,-0.43364670,-72.06079000
-234.67534624,-0.43694300,-71.80136000
-234.57534625,-0.44023930,-72.61018000
-234.47534625,-0.44573310,-73.14429000
-234.37534625,-0.44902940,-74.48724000
-234.27534625,-0.45452330,-75.02136000
-234.17534626,-0.45672080,-75.55548000
-234.07534626,-0.46221460,-76.10487000
-233.97534626,-0.46551090,-76.36430000
-233.87534626,-0.46886830,-76.91368000
-233.77534627,-0.47326330,-77.17311000
-233.67534627,-0.47875720,-78.25661000
-233.57534627,-0.47875720,-77.44781000
-233.47534627,-0.48534980,-76.91368000
-233.37534628,-0.48754730,-75.83017000
-233.27534628,-0.49084360,-75.29605000
-233.17534628,-0.49633740,-76.10487000
-233.07534628,-0.50073250,-76.63899000
-232.97534629,-0.50183130,-75.83017000
-232.87534629,-0.50738610,-76.91368000
-232.77534629,-0.51178120,-76.91368000
-232.67534629,-0.51397870,-76.36430000
-232.57534630,-0.51727500,-76.91368000
-232.47534630,-0.52276890,-76.10487000
-232.37534630,-0.52496640,-76.36430000
-232.27534630,-0.52936150,-76.91368000
-232.17534631,-0.53155900,-75.83017000
-232.07534631,-0.53265780,-75.02136000
-231.97534631,-0.53705290,-75.55548000
-231.87534631,-0.54144790,-75.83017000
-231.77534632,-0.54480530,-76.36430000
-231.67534632,-0.54810150,-76.10487000
-231.57534632,-0.55359540,-76.36430000
-231.47534632,-0.55469420,-75.02136000
-231.37534633,-0.56018800,-75.55548000
-231.27534633,-0.56238560,-75.55548000
-231.17534633,-0.56568180,-74.76193000
-231.07534633,-0.56897810,-71.26724000
-230.97534634,-0.57337320,-66.15492000
-230.87534634,-0.57447200,-64.53729000
-230.77534634,-0.57776830,-62.66023000
-230.67534634,-0.58106460,-61.04260000
-230.57534635,-0.58552070,-57.27322000
-230.47534635,-0.58771820,-31.74215000
-230.37534635,-0.58991580,-34.96215000
-230.27534635,-0.59211330,-31.46746000
-230.17534636,-0.59650840,-29.04102000
-230.07534636,-0.59870590,-28.78159000
-229.97534636,-0.60310100,-27.97277000
-229.87534636,-0.60419970,-28.50690000
-229.77534637,-0.60639730,-27.43865000
-229.67534637,-0.61079230,-27.43865000
-229.57534637,-0.61298980,-27.43865000
-229.47534637,-0.61518740,-27.43865000
-229.37534638,-0.61738490,-26.88927000
-229.27534638,-0.62068120,-27.16396000
-229.17534638,-0.62293980,-26.88927000
-229.07534638,-0.62513730,-26.88927000
-228.97534639,-0.62843360,-25.82102000
-228.87534639,-0.63173000,-25.82102000
-228.77534639,-0.63173000,-25.28690000
-228.67534639,-0.63502620,-25.54633000
-228.57534640,-0.63722380,-24.20339000
-228.47534640,-0.64052010,-23.66927000
-228.37534640,-0.64271760,-24.47808000
-228.27534640,-0.64381640,-25.28690000
-228.17534641,-0.64821140,-24.47808000
-228.07534641,-0.64931020,-24.73751000
-227.97534641,-0.65150770,-24.20339000
-227.87534641,-0.65260650,-25.01221000
-227.77534642,-0.65480410,-25.54633000
-227.67534642,-0.65810040,-25.82102000
-227.57534642,-0.66029790,-25.28690000
-227.47534642,-0.66145770,-25.54633000
-227.37534643,-0.66365520,-25.28690000
-227.27534643,-0.66475400,-25.82102000
-227.17534643,-0.66585280,-25.01221000
-227.07534643,-0.66914900,-25.28690000
-226.97534644,-0.67024780,-24.73751000
-226.87534644,-0.67244540,-25.01221000
-226.77534644,-0.67354410,-23.94396000
-226.67534644,-0.67684040,-24.20339000
-226.57534645,-0.67903790,-23.66927000
-226.47534645,-0.68123550,-24.20339000
-226.37534645,-0.68013670,-24.20339000
-226.27534646,-0.68343310,-23.39458000
-226.17534646,-0.68453180,-23.94396000
-226.07534646,-0.68672930,-22.32633000
-225.97534646,-0.68672930,-22.60102000
-225.87534647,-0.69002560,-22.05164000
-225.77534647,-0.69112440,-22.05164000
-225.67534647,-0.69002560,-21.79221000
-225.57534647,-0.69332190,-22.32633000
-225.47534648,-0.69442070,-20.70870000
-225.37534648,-0.69771700,-20.44927000
-225.27534648,-0.69661820,-20.17458000
-225.17534648,-0.69881580,-19.36577000
-225.07534649,-0.70107440,-19.09107000
-224.97534649,-0.70217310,-18.83164000
-224.87534649,-0.70217310,-19.09107000
-224.77534649,-0.70327190,-18.83164000
-224.67534650,-0.70327190,-17.74814000
-224.57534650,-0.70437060,-18.29752000
-224.47534650,-0.70546940,-18.55695000
-224.37534650,-0.70766690,-18.02283000
-224.27534651,-0.70766690,-17.74814000
-224.17534651,-0.70766690,-18.02283000
-224.07534651,-0.70986450,-18.02283000
-223.97534651,-0.70986450,-17.74814000
-223.87534652,-0.71096320,-18.29752000
-223.77534652,-0.71096320,-17.74814000
-223.67534652,-0.71096320,-17.74814000
-223.57534652,-0.71206200,-17.21401000
-223.47534653,-0.71206200,-17.48871000
-223.37534653,-0.71425960,-17.48871000
-223.27534653,-0.71535830,-18.02283000
-223.17534653,-0.71535830,-17.21401000
-223.07534654,-0.71425960,-18.02283000
-222.97534654,-0.71535830,-17.48871000
-222.87534654,-0.71865460,-16.95458000
-222.77534654,-0.71645710,-17.21401000
-222.67534655,-0.71755580,-17.21401000
-222.57534655,-0.71755580,-16.95458000
-222.47534655,-0.71645710,-16.95458000
-222.37534655,-0.71865460,-16.95458000
-222.27534656,-0.72085210,-17.21401000
-222.17534656,-0.71865460,-16.67989000
-222.07534656,-0.71865460,-16.95458000
-221.97534656,-0.71975340,-16.40520000
-221.87534657,-0.71975340,-16.14577000
-221.77534657,-0.71865460,-15.33695000
-221.67534657,-0.71755580,-14.80283000
-221.57534657,-0.71975340,-13.99402000
-221.47534658,-0.71865460,-13.71933000
-221.37534658,-0.71755580,-13.99402000
-221.27534658,-0.71975340,-13.44463000
-221.17534658,-0.71865460,-13.71933000
-221.07534659,-0.72085210,-13.71933000
-220.97534659,-0.71755580,-13.99402000
-220.87534659,-0.71755580,-13.99402000
-220.77534659,-0.71645710,-13.71933000
-220.67534660,-0.71755580,-13.71933000
-220.57534660,-0.71535830,-13.99402000
-220.47534660,-0.71645710,-13.71933000
-220.37534660,-0.71535830,-13.71933000
-220.27534661,-0.71645710,-14.25345000
-220.17534661,-0.71425960,-13.44463000
-220.07534661,-0.71535830,-13.99402000
-219.97534661,-0.71425960,-13.44463000
-219.87534662,-0.71316080,-12.91051000
-219.77534662,-0.71206200,-12.10170000
-219.67534662,-0.71206200,-13.18520000
-219.57534662,-0.71096320,-13.18520000
-219.47534663,-0.71096320,-12.91051000
-219.37534663,-0.70876570,-12.91051000
-219.27534663,-0.70766690,-12.91051000
-219.17534663,-0.70656820,-11.84227000
-219.07534664,-0.70656820,-12.65108000
-218.97534664,-0.70437060,-12.65108000
-218.87534664,-0.70437060,-12.65108000
-218.77534664,-0.70327190,-12.10170000
-218.67534665,-0.70217310,-13.18520000
-218.57534665,-0.70217310,-12.10170000
-218.47534665,-0.69997560,-12.37639000
-218.37534665,-0.69881580,-12.10170000
-218.27534666,-0.69661820,-12.10170000
-218.17534666,-0.69551940,-11.56757000
-218.07534666,-0.69551940,-12.10170000
-217.97534666,-0.69222320,-11.84227000
-217.87534667,-0.69442070,-11.56757000
-217.77534667,-0.69222320,-11.56757000
-217.67534667,-0.69112440,-12.10170000
-217.57534667,-0.68672930,-11.03345000
-217.47534668,-0.68672930,-11.03345000
-217.37534668,-0.68672930,-11.30814000
-217.27534668,-0.68343310,-11.30814000
-217.17534668,-0.68233420,-11.30814000
-217.07534669,-0.68123550,-11.56757000
-216.97534669,-0.67903790,-10.49933000
-216.87534669,-0.67793920,-11.03345000
-216.77534670,-0.67574170,-11.30814000
-216.67534670,-0.67244540,-10.49933000
-216.57534670,-0.67134660,-11.03345000
-216.47534670,-0.67024780,-11.30814000
-216.37534671,-0.66805030,-11.30814000
-216.27534671,-0.66695150,-11.03345000
-216.17534671,-0.66475400,-10.75876000
-216.07534671,-0.66365520,-9.94994400
-215.97534672,-0.66029790,-10.75876000
-215.87534672,-0.65810040,-10.22464000
-215.77534672,-0.65590280,-10.49933000
-215.67534672,-0.65590280,-9.69051400
-215.57534673,-0.65150770,-10.22464000
-215.47534673,-0.64931020,-10.49933000
-215.37534673,-0.64821140,-10.22464000
-215.27534673,-0.64711270,-9.94994400
-215.17534674,-0.64381640,-10.75876000
-215.07534674,-0.64161880,-10.75876000
-214.97534674,-0.64052010,-11.03345000
-214.87534674,-0.63612500,-9.94994400
-214.77534675,-0.63392750,-9.41582100
-214.67534675,-0.63282870,-10.22464000
-214.57534675,-0.62953240,-9.41582100
-214.47534675,-0.62623610,-9.94994400
-214.37534676,-0.62403860,-10.22464000
-214.27534676,-0.62184100,-9.69051400
-214.17534676,-0.61848370,-9.94994400
-214.07534676,-0.61628620,-9.94994400
-213.97534677,-0.61408870,-9.69051400
-213.87534677,-0.60969350,-9.41582100
-213.77534677,-0.60969350,-9.69051400
-213.67534677,-0.60639730,-9.94994400
-213.57534678,-0.60200220,-9.94994400
-213.47534678,-0.59980460,-9.94994400
-213.37534678,-0.59650840,-9.69051400
-213.27534678,-0.59540960,-9.94994400
-213.17534679,-0.59321210,-9.69051400
-213.07534679,-0.58881700,-9.15639000
-212.97534679,-0.58552070,-9.41582100
-212.87534679,-0.58332310,-9.15639000
-212.77534680,-0.57996580,-9.41582100
-212.67534680,-0.57666950,-9.41582100
-212.57534680,-0.57337320,-8.88169900
-212.47534680,-0.57007690,-9.41582100
-212.37534681,-0.56568180,-9.15639000
-212.27534681,-0.56568180,-8.88169900
-212.17534681,-0.56128670,-8.88169900
-212.07534681,-0.55689170,-8.60700700
-211.97534682,-0.55469420,-8.60700700
-211.87534682,-0.55029910,-8.88169900
-211.77534682,-0.54810150,-8.60700700
-211.67534682,-0.54590400,-8.34757600
-211.57534683,-0.54034910,-8.60700700
-211.47534683,-0.53925040,-8.60700700
-211.37534683,-0.53375660,-8.60700700
-211.27534683,-0.53046020,-8.60700700
-211.17534684,-0.52716400,-8.34757600
-211.07534684,-0.52386770,-8.07288500
-210.97534684,-0.51837380,-8.34757600
-210.87534684,-0.51617630,-8.88169900
-210.77534685,-0.51288000,-8.34757600
-210.67534685,-0.50848490,-8.07288500
-210.57534685,-0.50628740,-8.34757600
-210.47534685,-0.49963370,-8.07288500
-210.37534686,-0.49743620,-8.34757600
-210.27534686,-0.49304110,-7.79819300
-210.17534686,-0.49084360,-7.79819300
-210.07534686,-0.48754730,-8.60700700
-209.97534687,-0.48315220,-8.07288500
-209.87534687,-0.47875720,-7.79819300
-209.77534687,-0.47326330,-7.79819300
-209.67534687,-0.47326330,-8.07288500
-209.57534688,-0.46886830,-8.07288500
-209.47534688,-0.46331340,-7.53876200
-209.37534688,-0.46111580,-7.26407000
-209.27534688,-0.45342450,-7.53876200
-209.17534689,-0.45122690,-7.26407000
-209.07534689,-0.44902940,-7.53876200
-208.97534689,-0.44353560,-7.00463900
-208.87534689,-0.44023930,-7.00463900
-208.77534690,-0.43584420,-7.26407000
-208.67534690,-0.43144910,-7.26407000
-208.57534690,-0.42815290,-7.26407000
-208.47534690,-0.42259800,-7.26407000
-208.37534691,-0.41820290,-6.72994700
-208.27534691,-0.41600540,-6.19582400
-208.17534691,-0.41270910,-7.26407000
-208.07534691,-0.40721520,-7.00463900
-207.97534692,-0.40282020,-6.45525600
-207.87534692,-0.39622760,-7.26407000
-207.77534692,-0.39073370,-7.26407000
-207.67534692,-0.38847510,-6.45525600
-207.57534693,-0.38517890,-7.53876200
-207.47534693,-0.38078380,-6.45525600
-207.37534693,-0.37638870,-6.19582400
-207.27534694,-0.37089490,-6.45525600
-207.17534694,-0.36869730,-6.72994700
-207.07534694,-0.36210470,-5.92113300
-206.97534694,-0.35880850,-6.45525600
-206.87534695,-0.35441340,-6.45525600
-206.77534695,-0.34775970,-6.45525600
-206.67534695,-0.34226590,-5.92113300
-206.57534695,-0.34006840,-5.92113300
-206.47534696,-0.33457450,-6.19582400
-206.37534696,-0.33017950,-5.92113300
-206.27534696,-0.32468560,-6.19582400
-206.17534696,-0.31919180,-5.92113300
-206.07534697,-0.31589550,-5.92113300
-205.97534697,-0.30924180,-6.19582400
-205.87534697,-0.30594550,-5.38701000
-205.77534697,-0.30155050,-5.38701000
-205.67534698,-0.29935290,-5.92113300
-205.57534698,-0.29276030,-5.92113300
-205.47534698,-0.28616770,-5.66170100
-205.37534698,-0.28067390,-5.66170100
-205.27534699,-0.27627890,-5.38701000
-205.17534699,-0.27072400,-4.57819500
-205.07534699,-0.26742770,-5.38701000
-204.97534699,-0.26193380,-5.11231800
-204.87534700,-0.25753880,-5.11231800
-204.77534700,-0.25424240,-5.66170100
-204.67534700,-0.24764980,-4.57819500
-204.57534700,-0.24435360,-4.57819500
-204.47534701,-0.23776100,-5.38701000
-204.37534701,-0.23220610,-5.38701000
-204.27534701,-0.22671220,-4.85288700
-204.17534701,-0.22231720,-4.57819500
-204.07534702,-0.21902090,-5.11231800
-203.97534702,-0.21352700,-4.04407300
-203.87534702,-0.20693440,-4.85288700
-203.77534702,-0.20363810,-4.57819500
-203.67534703,-0.19704550,-5.11231800
-203.57534703,-0.19258940,-4.30350400
-203.47534703,-0.18709560,-4.04407300
-203.37534703,-0.18160180,-4.57819500
-203.27534704,-0.17610790,-4.57819500
-203.17534704,-0.17171280,-4.57819500
-203.07534704,-0.16512020,-4.04407300
-202.97534704,-0.16182400,-4.30350400
-202.87534705,-0.15742890,-4.57819500
-202.77534705,-0.15297280,-4.30350400
-202.67534705,-0.14638020,-3.76938100
-202.57534705,-0.13978760,-3.76938100
-202.47534706,-0.13649130,-4.30350400
-202.37534706,-0.12879990,-3.76938100
-202.27534706,-0.12330610,-4.30350400
-202.17534706,-0.11891100,-3.76938100
-202.07534707,-0.11445490,-2.96056600
-201.97534707,-0.10896110,-3.76938100
-201.87534707,-0.10346720,-3.76938100
-201.77534707,-0.09797338,-4.04407300
-201.67534708,-0.09247955,-2.96056600
-201.57534708,-0.08698571,-3.23525800
-201.47534708,-0.08149188,-3.76938100
-201.37534708,-0.07593700,-3.23525800
-201.27534709,-0.07044317,-2.96056600
-201.17534709,-0.06494933,-2.96056600
-201.07534709,-0.05835673,-3.50995000
-200.97534709,-0.05506043,-3.76938100
-200.87534710,-0.04736906,-3.23525800
-200.77534710,-0.04297400,-3.23525800
-200.67534710,-0.03851788,-3.50995000
-200.57534710,-0.03192528,-2.96056600
-200.47534711,-0.02753022,-2.42644400
-200.37534711,-0.02093761,-2.70113500
-200.27534711,-0.01544378,-3.23525800
-200.17534711,-0.01104871,-3.23525800
-200.07534712,-0.00445611,-2.15175200
-199.97534712,0.00109877,-2.15175200
-199.87534712,0.00549384,-2.96056600
-199.77534712,0.01208644,-2.42644400
-199.67534713,0.01648150,-2.42644400
-199.57534713,0.02307411,-2.42644400
-199.47534713,0.02856794,-2.96056600
-199.37534713,0.03406177,-2.15175200
-199.27534714,0.03961665,-2.42644400
-199.17534714,0.04401172,-1.61762900
-199.07534714,0.04950555,-2.15175200
-198.97534714,0.05609816,-1.61762900
-198.87534715,0.06269076,-1.89232100
-198.77534715,0.06818459,-1.61762900
-198.67534715,0.07367843,-1.35819800
-198.57534715,0.07813454,-2.15175200
-198.47534716,0.08472714,-1.35819800
-198.37534716,0.09022097,-1.08350600
-198.27534716,0.09571481,-0.80881450
