Frequency,Channel A,Channel C
(ms),(V),(V)

-250.20000339,0.37303140,0.13697960
-250.10000339,0.36863630,0.13963500
-250.00000339,0.36204370,0.13215720
-249.90000339,0.35435230,0.13053960
-249.80000340,0.35215480,0.12895250
-249.70000340,0.34659990,0.12788430
-249.60000340,0.34110610,0.12251250
-249.50000340,0.33451350,0.11823950
-249.40000341,0.32792090,0.11769010
-249.30000341,0.32352580,0.11662190
-249.20000341,0.31803200,0.11289830
-249.10000341,0.31143940,0.10700770
-249.00000342,0.30918080,0.10218530
-248.90000342,0.29929190,0.10111710
-248.80000342,0.29599560,0.09791234
-248.70000342,0.28940300,0.09522647
-248.60000343,0.28281040,0.09202173
-248.50000343,0.27841530,0.09254059
-248.40000343,0.27511900,0.08878647
-248.30000343,0.26516910,0.08771823
-248.20000344,0.26077400,0.08506288
-248.10000344,0.25637890,0.08506288
-248.00000344,0.24978630,0.08237700
-247.90000344,0.24649000,0.08130875
-247.80000345,0.23879870,0.07810402
-247.70000345,0.23550240,0.07648639
-247.60000345,0.22775000,0.07434990
-247.50000345,0.22225610,0.07273227
-247.40000346,0.21676230,0.07380051
-247.30000346,0.21016970,0.07328165
-247.20000346,0.20687340,0.07007691
-247.10000346,0.20028080,0.06900866
-247.00000347,0.19362710,0.06470516
-246.90000347,0.19033080,0.06204981
-246.80000347,0.18263950,0.06043218
-246.70000347,0.17714560,0.06043218
-246.60000348,0.17165180,0.05774631
-246.50000348,0.16725670,0.05292394
-246.40000348,0.16066410,0.05402271
-246.30000348,0.15626910,0.04117324
-246.20000349,0.14961540,0.03635087
-246.10000349,0.14302280,0.03686973
-246.00000349,0.13752900,0.03473324
-245.90000349,0.13203520,0.03473324
-245.80000350,0.12764010,0.02884263
-245.70000350,0.12104750,0.02725552
-245.60000350,0.11549260,0.01922842
-245.50000350,0.10890000,0.01709193
-245.40000351,0.10450490,0.01440606
-245.30000351,0.10010990,0.00906483
-245.20000351,0.09241851,0.00637895
-245.10000351,0.08802344,0.00531071
-245.00000352,0.08252960,0.00476132
-244.90000352,0.07587596,0.00369308
-244.80000352,0.07148089,0.00262483
-244.70000352,0.06708582,0.00262483
-244.60000353,0.05939446,0.00155659
-244.50000353,0.05390062,0.00100720
-244.40000353,0.04840679,-0.00057990
-244.30000353,0.04181419,-0.00006104
-244.20000354,0.03735808,-0.00112929
-244.10000354,0.03186424,-0.00006104
-244.00000354,0.02637041,-0.00006104
-243.90000354,0.01977780,-0.00164815
-243.80000355,0.01428397,-0.00271640
-243.70000355,0.00988890,-0.00271640
-243.60000355,0.00219753,-0.00326578
-243.50000355,-0.00225858,-0.00219753
-243.40000356,-0.00665364,-0.00326578
-243.30000356,-0.01324625,-0.00326578
-243.20000356,-0.01654255,-0.00485289
-243.10000356,-0.02313515,-0.00485289
-243.00000357,-0.02753022,-0.00540227
-242.90000357,-0.03412282,-0.00701990
-242.80000357,-0.03967769,-0.00860701
-242.70000358,-0.04736906,-0.00647052
-242.60000358,-0.05066536,-0.00808815
-242.50000358,-0.05615920,-0.00915639
-242.40000358,-0.06275180,-0.01074350
-242.30000359,-0.06934440,-0.01129288
-242.20000359,-0.07264070,-0.01236113
-242.10000359,-0.07929435,-0.01236113
-242.00000359,-0.08259065,-0.01342937
-241.90000360,-0.08808448,-0.01556586
-241.80000360,-0.09577585,-0.01611525
-241.70000360,-0.09687462,-0.01825174
-241.60000360,-0.10566480,-0.01825174
-241.50000361,-0.11005980,-0.01877060
-241.40000361,-0.11555370,-0.02093761
-241.30000361,-0.12110850,-0.02307411
-241.20000361,-0.12330610,-0.02252472
-241.10000362,-0.13209620,-0.02414235
-241.00000362,-0.13759000,-0.02627884
-240.90000362,-0.14198510,-0.02679770
-240.80000362,-0.14747890,-0.02841533
-240.70000363,-0.15077520,-0.03003296
-240.60000363,-0.15742890,-0.03216945
-240.50000363,-0.16402150,-0.03162007
-240.40000363,-0.16841660,-0.03375656
-240.30000364,-0.17500920,-0.03537419
-240.20000364,-0.17830540,-0.03857893
-240.10000364,-0.18489800,-0.03857893
-240.00000364,-0.18929310,-0.04019656
-239.90000365,-0.19484800,-0.04233305
-239.80000365,-0.19704550,-0.04285191
-239.70000365,-0.20583570,-0.04446954
-239.60000365,-0.20913200,-0.04660603
-239.50000366,-0.21572460,-0.04715541
-239.40000366,-0.22011960,-0.04981077
-239.30000366,-0.22341590,-0.05090953
-239.20000366,-0.22781100,-0.05304603
-239.10000367,-0.23446460,-0.05411427
-239.00000367,-0.23995850,-0.05625076
-238.90000367,-0.24435360,-0.05676962
-238.80000367,-0.24984740,-0.05945550
-238.70000368,-0.25314370,-0.06107313
-238.60000368,-0.25753880,-0.06320962
-238.50000368,-0.26523010,-0.06320962
-238.40000368,-0.26852640,-0.06534611
-238.30000369,-0.27518010,-0.06589550
-238.20000369,-0.27847640,-0.06803198
-238.10000369,-0.28287140,-0.06855085
-238.00000369,-0.28946410,-0.06961909
-237.90000370,-0.29495790,-0.07068734
-237.80000370,-0.29935290,-0.07230496
-237.70000370,-0.30374800,-0.07337321
-237.60000370,-0.30814310,-0.07605909
-237.50000371,-0.31369800,-0.07712734
-237.40000371,-0.31699420,-0.07764620
-237.30000371,-0.32138930,-0.07978269
-237.20000371,-0.32798190,-0.08088145
-237.10000372,-0.33127820,-0.08246856
-237.00000372,-0.33787080,-0.08301795
-236.90000372,-0.34006840,-0.08246856
-236.80000372,-0.34666100,-0.08246856
-236.70000373,-0.35111710,-0.08408619
-236.60000373,-0.35441340,-0.08353680
-236.50000373,-0.35770970,-0.08515444
-236.40000373,-0.36320350,-0.08567330
-236.30000374,-0.36759860,-0.08784031
-236.20000374,-0.37199370,-0.08890855
-236.10000374,-0.37638870,-0.08942742
-236.00000374,-0.38298130,-0.09104505
-235.90000375,-0.38517890,-0.09104505
-235.80000375,-0.38847510,-0.09211329
-235.70000375,-0.39403000,-0.09424978
-235.60000375,-0.39842510,-0.09370040
-235.50000376,-0.40391890,-0.09370040
-235.40000376,-0.40721520,-0.09370040
-235.30000376,-0.41161030,-0.09586741
-235.20000376,-0.41710410,-0.09586741
-235.10000377,-0.42040040,-0.09476864
-235.00000377,-0.42589430,-0.09531803
-234.90000377,-0.42815290,-0.09693566
-234.80000377,-0.43364670,-0.09476864
-234.70000378,-0.43584420,-0.09693566
-234.60000378,-0.44133810,-0.09638628
-234.50000378,-0.44463430,-0.09693566
-234.40000378,-0.45012820,-0.09852277
-234.30000379,-0.45232570,-0.09800391
-234.20000379,-0.45891830,-0.09211329
-234.10000379,-0.46001710,-0.09211329
-234.00000379,-0.46441220,-0.08942742
-233.90000380,-0.46996700,-0.09156391
-233.80000380,-0.47326330,-0.08997680
-233.70000380,-0.47765840,-0.08997680
-233.60000380,-0.48095470,-0.08515444
-233.50000381,-0.48425100,-0.08408619
-233.40000381,-0.48864610,-0.08301795
-233.30000381,-0.49084360,-0.07764620
-233.20000382,-0.49413990,-0.07871445
-233.10000382,-0.49963370,-0.08246856
-233.00000382,-0.50402880,-0.08194970
-232.90000382,-0.50512750,-0.08140032
-232.80000383,-0.51068250,-0.07978269
-232.70000383,-0.51397870,-0.07871445
-232.60000383,-0.52057140,-0.08301795
-232.50000383,-0.52167010,-0.08353680
-232.40000384,-0.52496640,-0.08140032
-232.30000384,-0.52826270,-0.08033207
-232.20000384,-0.53265780,-0.07926382
-232.10000384,-0.53595410,-0.07550970
-232.00000385,-0.53925040,-0.07230496
-231.90000385,-0.54364540,-0.06910023
-231.80000385,-0.54700280,-0.06910023
-231.70000385,-0.55029910,-0.07337321
-231.60000386,-0.55359540,-0.06427786
-231.50000386,-0.55799050,-0.06159199
-231.40000386,-0.56018800,-0.06855085
-231.30000386,-0.56348430,-0.06696374
-231.20000387,-0.56678060,-0.06427786
-231.10000387,-0.57007690,-0.06159199
-231.00000387,-0.57227440,-0.06372848
-230.90000387,-0.57557080,-0.06534611
-230.80000388,-0.57776830,-0.06000488
-230.70000388,-0.58216330,-0.06479673
-230.60000388,-0.58442190,-0.05893664
-230.50000388,-0.58771820,-0.05356489
-230.40000389,-0.58991580,-0.05411427
-230.30000389,-0.59540960,-0.05411427
-230.20000389,-0.59650840,-0.05356489
-230.10000389,-0.59760710,-0.05518252
-230.00000390,-0.60310100,-0.05304603
-229.90000390,-0.60310100,-0.04929191
-229.80000390,-0.60749600,-0.04553778
-229.70000390,-0.60969350,-0.04178366
-229.60000391,-0.61298980,-0.04715541
-229.50000391,-0.61518740,-0.04553778
-229.40000391,-0.61738490,-0.04395068
-229.30000391,-0.62184100,-0.04340129
-229.20000392,-0.62184100,-0.04446954
-229.10000392,-0.62623610,-0.04178366
-229.00000392,-0.62843360,-0.04233305
-228.90000392,-0.63063110,-0.03964717
-228.80000393,-0.63282870,-0.03699182
-228.70000393,-0.63502620,-0.02948358
-228.60000393,-0.63722380,-0.02307411
-228.50000393,-0.63942130,-0.02145648
-228.40000394,-0.64381640,-0.01983885
-228.30000394,-0.64381640,-0.02145648
-228.20000394,-0.64711270,-0.01983885
-228.10000394,-0.65040900,-0.01931999
-228.00000395,-0.65150770,-0.01931999
-227.90000395,-0.65370530,-0.01718349
-227.80000395,-0.65480410,-0.01770236
-227.70000395,-0.65700160,-0.01663411
-227.60000396,-0.66029790,-0.01663411
-227.50000396,-0.66255650,-0.01556586
-227.40000396,-0.66365520,-0.01556586
-227.30000396,-0.66695150,-0.01611525
-227.20000397,-0.66805030,-0.01556586
-227.10000397,-0.67134660,-0.01504700
-227.00000397,-0.67244540,-0.01449762
-226.90000397,-0.67244540,-0.01449762
-226.80000398,-0.67464290,-0.01504700
-226.70000398,-0.67793920,-0.01397876
-226.60000398,-0.67903790,-0.01287999
-226.50000398,-0.68123550,-0.01397876
-226.40000399,-0.68233420,-0.01342937
-226.30000399,-0.68233420,-0.01397876
-226.20000399,-0.68453180,-0.01181174
-226.10000399,-0.68782810,-0.01236113
-226.00000400,-0.68892690,-0.01236113
-225.90000400,-0.69112440,-0.01236113
-225.80000400,-0.69002560,-0.01236113
-225.70000400,-0.69222320,-0.01181174
-225.60000401,-0.69222320,-0.01236113
-225.50000401,-0.69442070,-0.01287999
-225.40000401,-0.69661820,-0.01236113
-225.30000401,-0.69551940,-0.01022464
-225.20000402,-0.69881580,-0.01236113
-225.10000402,-0.70107440,-0.01236113
-225.00000402,-0.70107440,-0.01181174
-224.90000402,-0.70217310,-0.01074350
-224.80000403,-0.70437060,-0.01074350
-224.70000403,-0.70546940,-0.01236113
-224.60000403,-0.70437060,-0.01074350
-224.50000403,-0.70656820,-0.01181174
-224.40000404,-0.70766690,-0.01129288
-224.30000404,-0.70986450,-0.01181174
-224.20000404,-0.70876570,-0.01074350
-224.10000404,-0.70986450,-0.01129288
-224.00000405,-0.71096320,-0.01022464
-223.90000405,-0.71206200,-0.01022464
-223.80000405,-0.71316080,-0.01022464
-223.70000405,-0.71425960,-0.01074350
-223.60000406,-0.71206200,-0.01129288
-223.50000406,-0.71535830,-0.01181174
-223.40000406,-0.71425960,-0.01181174
-223.30000407,-0.71535830,-0.00967525
-223.20000407,-0.71645710,-0.01074350
-223.10000407,-0.71645710,-0.01022464
-223.00000407,-0.71755580,-0.01022464
-222.90000408,-0.71755580,-0.00915639
-222.80000408,-0.71755580,-0.00967525
-222.70000408,-0.71865460,-0.00967525
-222.60000408,-0.71645710,-0.00967525
-222.50000409,-0.71975340,-0.01022464
-222.40000409,-0.71865460,-0.01181174
-222.30000409,-0.71975340,-0.00967525
-222.20000409,-0.71975340,-0.01074350
-222.10000410,-0.71975340,-0.00860701
-222.00000410,-0.71865460,-0.01022464
-221.90000410,-0.71865460,-0.00967525
-221.80000410,-0.72085210,-0.01074350
-221.70000411,-0.71975340,-0.00860701
-221.60000411,-0.72085210,-0.00915639
-221.50000411,-0.71975340,-0.01022464
-221.40000411,-0.71975340,-0.01022464
-221.30000412,-0.71975340,-0.01022464
-221.20000412,-0.71975340,-0.01022464
-221.10000412,-0.71975340,-0.00967525
-221.00000412,-0.71975340,-0.01129288
-220.90000413,-0.71975340,-0.00967525
-220.80000413,-0.71975340,-0.00967525
-220.70000413,-0.71865460,-0.01022464
-220.60000413,-0.71645710,-0.00860701
-220.50000414,-0.71645710,-0.00915639
-220.40000414,-0.71645710,-0.00915639
-220.30000414,-0.71755580,-0.00967525
-220.20000414,-0.71425960,-0.00808815
-220.10000415,-0.71535830,-0.00860701
-220.00000415,-0.71316080,-0.00915639
-219.90000415,-0.71316080,-0.00860701
-219.80000415,-0.71316080,-0.00915639
-219.70000416,-0.71206200,-0.00808815
-219.60000416,-0.71206200,-0.00915639
-219.50000416,-0.71096320,-0.00860701
-219.40000416,-0.70986450,-0.00860701
-219.30000417,-0.70876570,-0.00860701
-219.20000417,-0.70766690,-0.00808815
-219.10000417,-0.70876570,-0.00860701
-219.00000417,-0.70876570,-0.00915639
-218.90000418,-0.70656820,-0.00860701
-218.80000418,-0.70546940,-0.00808815
-218.70000418,-0.70217310,-0.00753876
-218.60000418,-0.70437060,-0.00860701
-218.50000419,-0.70107440,-0.00753876
-218.40000419,-0.69771700,-0.01022464
-218.30000419,-0.69881580,-0.00860701
-218.20000419,-0.69661820,-0.00753876
-218.10000420,-0.69442070,-0.00915639
-218.00000420,-0.69551940,-0.00967525
-217.90000420,-0.69442070,-0.00808815
-217.80000420,-0.69222320,-0.00701990
-217.70000421,-0.69002560,-0.00915639
-217.60000421,-0.69002560,-0.00808815
-217.50000421,-0.68672930,-0.00967525
-217.40000421,-0.68672930,-0.00753876
-217.30000422,-0.68453180,-0.00808815
-217.20000422,-0.68453180,-0.00701990
-217.10000422,-0.68233420,-0.00915639
-217.00000422,-0.68123550,-0.00808815
-216.90000423,-0.67684040,-0.00860701
-216.80000423,-0.67793920,-0.00915639
-216.70000423,-0.67574170,-0.00808815
-216.60000423,-0.67244540,-0.00860701
-216.50000424,-0.67134660,-0.00860701
-216.40000424,-0.66914900,-0.00753876
-216.30000424,-0.66914900,-0.00808815
-216.20000424,-0.66695150,-0.00701990
-216.10000425,-0.66365520,-0.00860701
-216.00000425,-0.66029790,-0.00701990
-215.90000425,-0.65810040,-0.00860701
-215.80000425,-0.65590280,-0.00701990
-215.70000426,-0.65590280,-0.00808815
-215.60000426,-0.65480410,-0.00753876
-215.50000426,-0.65040900,-0.00753876
-215.40000426,-0.65040900,-0.00753876
-215.30000427,-0.64711270,-0.00753876
-215.20000427,-0.64491520,-0.00753876
-215.10000427,-0.64161880,-0.00753876
-215.00000427,-0.63942130,-0.00701990
-214.90000428,-0.63722380,-0.00647052
-214.80000428,-0.63722380,-0.00647052
-214.70000428,-0.63502620,-0.00808815
-214.60000428,-0.63063110,-0.00701990
-214.50000429,-0.62843360,-0.00753876
-214.40000429,-0.62513730,-0.00753876
-214.30000429,-0.62513730,-0.00701990
-214.20000429,-0.61848370,-0.00808815
-214.10000430,-0.61848370,-0.00647052
-214.00000430,-0.61628620,-0.00647052
-213.90000430,-0.61298980,-0.00701990
-213.80000431,-0.60969350,-0.00753876
-213.70000431,-0.60529850,-0.00592113
-213.60000431,-0.60419970,-0.00647052
-213.50000431,-0.60090340,-0.00808815
-213.40000432,-0.59650840,-0.00753876
-213.30000432,-0.59540960,-0.00753876
-213.20000432,-0.59101450,-0.00701990
-213.10000432,-0.58991580,-0.00701990
-213.00000433,-0.58881700,-0.00647052
-212.90000433,-0.58332310,-0.00808815
-212.80000433,-0.58106460,-0.00701990
-212.70000433,-0.57557080,-0.00753876
-212.60000434,-0.57666950,-0.00592113
-212.50000434,-0.57337320,-0.00701990
-212.40000434,-0.56897810,-0.00592113
-212.30000434,-0.56568180,-0.00701990
-212.20000435,-0.56238560,-0.00592113
-212.10000435,-0.55799050,-0.00753876
-212.00000435,-0.55689170,-0.00647052
-211.90000435,-0.55359540,-0.00701990
-211.80000436,-0.55029910,-0.00592113
-211.70000436,-0.54590400,-0.00540227
-211.60000436,-0.54364540,-0.00540227
-211.50000436,-0.53815160,-0.00647052
-211.40000437,-0.53375660,-0.00647052
-211.30000437,-0.53265780,-0.00592113
-211.20000437,-0.52716400,-0.00753876
-211.10000437,-0.52386770,-0.00592113
-211.00000438,-0.52276890,-0.00647052
-210.90000438,-0.51837380,-0.00485289
-210.80000438,-0.51288000,-0.00592113
-210.70000438,-0.50958370,-0.00592113
-210.60000439,-0.50512750,-0.00540227
-210.50000439,-0.50293000,-0.00753876
-210.40000439,-0.49963370,-0.00701990
-210.30000439,-0.49413990,-0.00540227
-210.20000440,-0.49084360,-0.00485289
-210.10000440,-0.48864610,-0.00540227
-210.00000440,-0.48425100,-0.00592113
-209.90000440,-0.47985590,-0.00540227
-209.80000441,-0.47655960,-0.00592113
-209.70000441,-0.47106580,-0.00592113
-209.60000441,-0.46886830,-0.00592113
-209.50000441,-0.46441220,-0.00647052
-209.40000442,-0.46001710,-0.00540227
-209.30000442,-0.45781960,-0.00647052
-209.20000442,-0.45232570,-0.00592113
-209.10000442,-0.44902940,-0.00540227
-209.00000443,-0.44463430,-0.00540227
-208.90000443,-0.44133810,-0.00540227
-208.80000443,-0.43584420,-0.00592113
-208.70000443,-0.43474540,-0.00433403
-208.60000444,-0.42815290,-0.00540227
-208.50000444,-0.42589430,-0.00540227
-208.40000444,-0.41930170,-0.00592113
-208.30000444,-0.41710410,-0.00701990
-208.20000445,-0.41270910,-0.00540227
-208.10000445,-0.40721520,-0.00592113
-208.00000445,-0.40282020,-0.00485289
-207.90000445,-0.39952390,-0.00647052
-207.80000446,-0.39512880,-0.00540227
-207.70000446,-0.38963500,-0.00540227
-207.60000446,-0.38517890,-0.00540227
-207.50000446,-0.38298130,-0.00433403
-207.40000447,-0.37638870,-0.00433403
-207.30000447,-0.37199370,-0.00540227
-207.20000447,-0.36979610,-0.00433403
-207.10000447,-0.36320350,-0.00540227
-207.00000448,-0.35770970,-0.00378464
-206.90000448,-0.35441340,-0.00485289
-206.80000448,-0.35111710,-0.00433403
-206.70000448,-0.34556220,-0.00485289
-206.60000449,-0.34116710,-0.00485289
-206.50000449,-0.33457450,-0.00326578
-206.40000449,-0.33237700,-0.00326578
-206.30000449,-0.32798190,-0.00378464
-206.20000450,-0.32248810,-0.00433403
-206.10000450,-0.31699420,-0.00326578
-206.00000450,-0.31259920,-0.00485289
-205.90000450,-0.30704430,-0.00485289
-205.80000451,-0.30484680,-0.00378464
-205.70000451,-0.29715540,-0.00433403
-205.60000451,-0.29166160,-0.00378464
-205.50000451,-0.28726650,-0.00433403
-205.40000452,-0.28397020,-0.00326578
-205.30000452,-0.27957510,-0.00378464
-205.20000452,-0.27408130,-0.00378464
-205.10000452,-0.26742770,-0.00433403
-205.00000453,-0.26193380,-0.00378464
-204.90000453,-0.25863750,-0.00378464
-204.80000453,-0.25644000,-0.00433403
-204.70000453,-0.24984740,-0.00326578
-204.60000454,-0.24435360,-0.00485289
-204.50000454,-0.23885970,-0.00326578
-204.40000454,-0.23446460,-0.00271640
-204.30000455,-0.22890980,-0.00433403
-204.20000455,-0.22561350,-0.00433403
-204.10000455,-0.21902090,-0.00378464
-204.00000455,-0.21352700,-0.00433403
-203.90000456,-0.21023070,-0.00271640
-203.80000456,-0.20253940,-0.00326578
-203.70000456,-0.19814430,-0.00433403
-203.60000456,-0.19368820,-0.00378464
-203.50000457,-0.18929310,-0.00378464
-203.40000457,-0.18379930,-0.00164815
-203.30000457,-0.17830540,-0.00378464
-203.20000457,-0.17171280,-0.00378464
-203.10000458,-0.16841660,-0.00271640
-203.00000458,-0.16182400,-0.00271640
-202.90000458,-0.15852760,-0.00326578
-202.80000458,-0.15297280,-0.00378464
-202.70000459,-0.14638020,-0.00271640
-202.60000459,-0.14088630,-0.00219753
-202.50000459,-0.13649130,-0.00219753
-202.40000459,-0.12989870,-0.00271640
-202.30000460,-0.12660240,-0.00326578
-202.20000460,-0.12000980,-0.00378464
-202.10000460,-0.11555370,-0.00271640
-202.00000460,-0.10786230,-0.00271640
-201.90000461,-0.10346720,-0.00326578
-201.80000461,-0.09907215,-0.00164815
-201.70000461,-0.09247955,-0.00164815
-201.60000461,-0.08808448,-0.00271640
-201.50000462,-0.08149188,-0.00271640
-201.40000462,-0.07703577,-0.00326578
-201.30000462,-0.07154194,-0.00112929
-201.20000462,-0.06604810,-0.00326578
-201.10000463,-0.06055427,-0.00271640
-201.00000463,-0.05506043,-0.00219753
-200.90000463,-0.04956660,-0.00271640
-200.80000463,-0.04407276,-0.00271640
-200.70000464,-0.03967769,-0.00326578
-200.60000464,-0.03522158,-0.00112929
-200.50000464,-0.02753022,-0.00271640
-200.40000464,-0.01983885,-0.00271640
-200.30000465,-0.01544378,-0.00164815
-200.20000465,-0.01214748,-0.00326578
-200.10000465,-0.00665364,-0.00219753
-200.00000465,-0.00225858,-0.00112929
-199.90000466,0.00549384,-0.00219753
-199.80000466,0.01098767,-0.00219753
-199.70000466,0.01977780,-0.00164815
-199.60000466,0.02197534,-0.00164815
-199.50000467,0.02637041,-0.00112929
-199.40000467,0.03406177,-0.00164815
-199.30000467,0.03735808,-0.00219753
-199.20000467,0.04401172,-0.00057990
-199.10000468,0.04950555,-0.00057990
-199.00000468,0.05390062,-0.00112929
-198.90000468,0.06049322,-0.00057990
-198.80000468,0.06598706,-0.00164815
-198.70000469,0.07257966,-0.00164815
-198.60000469,0.07697473,-0.00006104
-198.50000469,0.08362837,-0.00219753
-198.40000469,0.08912221,-0.00219753
-198.30000470,0.09571481,-0.00219753
-198.20000470,0.09901111,-0.00219753
-198.10000470,0.10450490,-0.00112929
-198.00000470,0.11109750,-0.00057990
-197.90000471,0.11665240,-0.00164815
-197.80000471,0.12434380,-0.00164815
-197.70000471,0.12873890,-0.00057990
-197.60000471,0.13533150,-0.00006104
-197.50000472,0.14082530,-0.00112929
-197.40000472,0.14522040,-0.00057990
