Frequency,Channel A,Channel C
(ms),(V),(mV)

-250.20000339,0.37193260,101.36120000
-250.10000339,0.36973510,98.12599000
-250.00000339,0.36314250,96.24892000
-249.90000339,0.35984620,93.02893000
-249.80000340,0.35215480,91.41130000
-249.70000340,0.34769870,90.06837000
-249.60000340,0.34110610,86.57367000
-249.50000340,0.33671100,86.57367000
-249.40000341,0.33231600,85.23074000
-249.30000341,0.32462460,84.69662000
-249.20000341,0.32022950,80.11842000
-249.10000341,0.31583450,78.24136000
-249.00000342,0.30808200,76.89842000
-248.90000342,0.30148940,75.00610000
-248.80000342,0.29709440,72.85435000
-248.70000342,0.29269930,71.78610000
-248.60000343,0.28500790,69.10023000
-248.50000343,0.28171160,70.97729000
-248.40000343,0.27292150,62.11085000
-248.30000343,0.26956420,59.68441000
-248.20000344,0.26407030,58.60090000
-248.10000344,0.25747770,56.46441000
-248.00000344,0.25198390,54.84678000
-247.90000344,0.24649000,54.03796000
-247.80000345,0.24209500,52.95446000
-247.70000345,0.23550240,51.35209000
-247.60000345,0.22994750,49.20034000
-247.50000345,0.22445370,45.43095000
-247.40000346,0.21895980,44.36271000
-247.30000346,0.21236720,42.47039000
-247.20000346,0.20797220,40.05921000
-247.10000346,0.20247830,39.52509000
-247.00000347,0.19588570,37.90746000
-246.90000347,0.18923210,36.56452000
-246.80000347,0.18373820,35.22158000
-246.70000347,0.17934320,34.94689000
-246.60000348,0.17384930,33.87864000
-246.50000348,0.16835550,30.64339000
-246.40000348,0.16176290,28.23220000
-246.30000348,0.15626910,27.42339000
-246.20000349,0.15071420,24.99695000
-246.10000349,0.14631910,24.72225000
-246.00000349,0.13972650,23.11989000
-245.90000349,0.13313390,22.03638000
-245.80000350,0.12764010,20.96813000
-245.70000350,0.12214630,19.88463000
-245.60000350,0.11439380,19.07581000
-245.50000350,0.11219630,17.73288000
-245.40000351,0.10450490,13.16994000
-245.30000351,0.09901111,12.63582000
-245.20000351,0.09461604,11.82700000
-245.10000351,0.08912221,9.93468400
-245.00000352,0.08472714,9.14112900
-244.90000352,0.07813454,7.24880900
-244.80000352,0.07367843,7.78293200
-244.70000352,0.06598706,5.64644100
-244.60000353,0.06049322,3.21999700
-244.50000353,0.05609816,2.68587400
-244.40000353,0.04950555,2.13649100
-244.30000353,0.04401172,0.53412280
-244.20000354,0.03845684,-0.54938340
-244.10000354,0.03186424,-0.54938340
-244.00000354,0.02637041,-1.35819800
-243.90000354,0.02197534,-1.89232100
-243.80000355,0.01648150,-2.42644400
-243.70000355,0.01098767,-2.15175200
-243.60000355,0.00549384,-2.96056600
-243.50000355,0.00000000,-3.50995000
-243.40000356,-0.00445611,-3.76938100
-243.30000356,-0.01104871,-4.85288700
-243.20000356,-0.01654255,-4.85288700
-243.10000356,-0.02093761,-4.85288700
-243.00000357,-0.02643145,-5.38701000
-242.90000357,-0.03302405,-6.45525600
-242.80000357,-0.03851788,-7.26407000
-242.70000358,-0.04407276,-8.07288500
-242.60000358,-0.04956660,-8.07288500
-242.50000358,-0.05506043,-8.60700700
-242.40000358,-0.06055427,-9.41582100
-242.30000359,-0.06494933,-9.94994400
-242.20000359,-0.07154194,-11.03345000
-242.10000359,-0.07593700,-11.30814000
-242.00000359,-0.08149188,-12.37639000
-241.90000360,-0.08698571,-12.65108000
-241.80000360,-0.09247955,-13.71933000
-241.70000360,-0.09797338,-13.99402000
-241.60000360,-0.10456600,-14.80283000
-241.50000361,-0.10786230,-16.14577000
-241.40000361,-0.11335610,-16.40520000
-241.30000361,-0.12220730,-17.74814000
-241.20000361,-0.12550360,-17.74814000
-241.10000362,-0.13099740,-19.09107000
-241.00000362,-0.13539250,-20.17458000
-240.90000362,-0.14088630,-20.44927000
-240.80000362,-0.14638020,-20.44927000
-240.70000363,-0.15187400,-21.51752000
-240.60000363,-0.15517030,-22.05164000
-240.50000363,-0.16292270,-23.39458000
-240.40000363,-0.16512020,-23.94396000
-240.30000364,-0.17281160,-23.94396000
-240.20000364,-0.17610790,-25.28690000
-240.10000364,-0.18160180,-25.82102000
-240.00000364,-0.18819440,-26.09571000
-239.90000365,-0.19149070,-27.69808000
-239.80000365,-0.19704550,-28.24747000
-239.70000365,-0.20363810,-28.78159000
-239.60000365,-0.20693440,-29.04102000
-239.50000366,-0.21462580,-29.84983000
-239.40000366,-0.21902090,-30.12453000
-239.30000366,-0.22231720,-30.65865000
-239.20000366,-0.22890980,-31.46746000
-239.10000367,-0.23336590,-32.27628000
-239.00000367,-0.23885970,-33.34452000
-238.90000367,-0.24325480,-33.89390000
-238.80000367,-0.24764980,-34.15334000
-238.70000368,-0.25314370,-33.34452000
-238.60000368,-0.25753880,-34.96215000
-238.50000368,-0.26303260,-35.49627000
-238.40000368,-0.26852640,-37.11390000
-238.30000369,-0.27182270,-37.92271000
-238.20000369,-0.27627890,-38.18215000
-238.10000369,-0.28287140,-38.99096000
-238.00000369,-0.28836530,-39.54035000
-237.90000370,-0.29056280,-40.07447000
-237.80000370,-0.29715540,-40.88329000
-237.70000370,-0.30264930,-40.88329000
-237.60000370,-0.30594550,-41.67684000
-237.50000371,-0.31034060,-43.56916000
-237.40000371,-0.31479670,-44.37797000
-237.30000371,-0.32138930,-45.44622000
-237.20000371,-0.32468560,-45.72091000
-237.10000372,-0.33017950,-46.25504000
-237.00000372,-0.33347580,-47.32328000
-236.90000372,-0.33896960,-48.13209000
-236.80000372,-0.34556220,-48.68148000
-236.70000373,-0.34885850,-48.68148000
-236.60000373,-0.35221580,-50.02441000
-236.50000373,-0.35880850,-50.02441000
-236.40000373,-0.36320350,-51.62679000
-236.30000374,-0.36759860,-52.43560000
-236.20000374,-0.36979610,-52.96972000
-236.10000374,-0.37528990,-54.32792000
-236.00000374,-0.37968500,-54.58735000
-235.90000375,-0.38627760,-54.86204000
-235.80000375,-0.38963500,-56.20498000
-235.70000375,-0.39403000,-56.20498000
-235.60000375,-0.39732630,-57.27322000
-235.50000376,-0.40282020,-57.82261000
-235.40000376,-0.40721520,-58.08204000
-235.30000376,-0.40941280,-59.16554000
-235.20000376,-0.41490660,-59.16554000
-235.10000377,-0.41710410,-59.97436000
-235.00000377,-0.42149920,-60.23379000
-234.90000377,-0.42699300,-61.57673000
-234.80000377,-0.43035040,-60.50848000
-234.70000378,-0.43584420,-61.04260000
-234.60000378,-0.44023930,-62.12611000
-234.50000378,-0.44353560,-62.66023000
-234.40000378,-0.44793060,-63.19435000
-234.30000379,-0.45122690,-63.19435000
-234.20000379,-0.45562200,-64.53729000
-234.10000379,-0.46001710,-64.81199000
-234.00000379,-0.46331340,-65.34610000
-233.90000380,-0.46776950,-65.07141000
-233.80000380,-0.47216460,-66.68904000
-233.70000380,-0.47546090,-66.96374000
-233.60000380,-0.47875720,-68.30667000
-233.50000381,-0.48315220,-67.22317000
-233.40000381,-0.48534980,-68.03197000
-233.30000381,-0.48974480,-66.96374000
-233.20000382,-0.49413990,-68.84080000
-233.10000382,-0.49853500,-69.11549000
-233.00000382,-0.49963370,-68.84080000
-232.90000382,-0.50738610,-69.37492000
-232.80000383,-0.51068250,-69.90904000
-232.70000383,-0.51288000,-70.45842000
-232.60000383,-0.51507750,-69.37492000
-232.50000383,-0.51947260,-67.77254000
-232.40000384,-0.52167010,-68.03197000
-232.30000384,-0.52716400,-67.22317000
-232.20000384,-0.53155900,-66.68904000
-232.10000384,-0.53485530,-66.15492000
-232.00000385,-0.53815160,-66.96374000
-231.90000385,-0.54254670,-63.72848000
-231.80000385,-0.54364540,-62.38554000
-231.70000385,-0.54810150,-61.57673000
-231.60000386,-0.55139790,-59.97436000
-231.50000386,-0.55249660,-61.04260000
-231.40000386,-0.55689170,-59.69967000
-231.30000386,-0.56018800,-59.69967000
-231.20000387,-0.56348430,-57.82261000
-231.10000387,-0.56678060,-57.54792000
-231.00000387,-0.57007690,-56.73910000
-230.90000387,-0.57337320,-56.47967000
-230.80000388,-0.57776830,-57.54792000
-230.70000388,-0.57776830,-58.61616000
-230.60000388,-0.58442190,-58.61616000
-230.50000388,-0.58442190,-59.42497000
-230.40000389,-0.58771820,-58.08204000
-230.30000389,-0.59101450,-58.61616000
-230.20000389,-0.59431080,-58.61616000
-230.10000389,-0.59540960,-58.35673000
-230.00000390,-0.59760710,-55.93028000
-229.90000390,-0.60200220,-54.05323000
-229.80000390,-0.60639730,-55.12147000
-229.70000390,-0.60749600,-55.12147000
-229.60000391,-0.61079230,-51.62679000
-229.50000391,-0.61518740,-52.43560000
-229.40000391,-0.61628620,-53.51910000
-229.30000391,-0.61848370,-53.77853000
-229.20000392,-0.62068120,-53.51910000
-229.10000392,-0.62403860,-54.05323000
-229.00000392,-0.62513730,-54.58735000
-228.90000392,-0.62843360,-54.32792000
-228.80000393,-0.63063110,-54.58735000
-228.70000393,-0.63392750,-54.58735000
-228.60000393,-0.63612500,-47.87266000
-228.50000393,-0.63832250,-30.93334000
-228.40000394,-0.64052010,-29.84983000
-228.30000394,-0.64271760,-28.78159000
-228.20000394,-0.64601390,-28.78159000
-228.10000394,-0.64711270,-27.43865000
-228.00000395,-0.65150770,-26.35514000
-227.90000395,-0.65150770,-26.09571000
-227.80000395,-0.65260650,-25.28690000
-227.70000395,-0.65590280,-23.39458000
-227.60000396,-0.65700160,-22.05164000
-227.50000396,-0.66029790,-21.24283000
-227.40000396,-0.66145770,-20.70870000
-227.30000396,-0.66365520,-20.44927000
-227.20000397,-0.66695150,-19.36577000
-227.10000397,-0.66805030,-18.55695000
-227.00000397,-0.66805030,-18.55695000
-226.90000397,-0.67024780,-17.48871000
-226.80000398,-0.67464290,-17.48871000
-226.70000398,-0.67574170,-16.95458000
-226.60000398,-0.67574170,-16.40520000
-226.50000398,-0.67793920,-16.40520000
-226.40000399,-0.68123550,-15.59639000
-226.30000399,-0.68123550,-16.40520000
-226.20000399,-0.68343310,-16.14577000
-226.10000399,-0.68563060,-15.33695000
-226.00000400,-0.68563060,-15.06226000
-225.90000400,-0.68563060,-14.80283000
-225.80000400,-0.69002560,-14.80283000
-225.70000400,-0.69002560,-13.99402000
-225.60000401,-0.69112440,-14.25345000
-225.50000401,-0.69112440,-14.25345000
-225.40000401,-0.69442070,-13.99402000
-225.30000401,-0.69551940,-13.99402000
-225.20000402,-0.69771700,-13.99402000
-225.10000402,-0.69771700,-13.71933000
-225.00000402,-0.70107440,-13.44463000
-224.90000402,-0.70107440,-13.18520000
-224.80000403,-0.70327190,-13.71933000
-224.70000403,-0.70217310,-12.91051000
-224.60000403,-0.70437060,-12.91051000
-224.50000403,-0.70327190,-12.65108000
-224.40000404,-0.70656820,-13.71933000
-224.30000404,-0.70766690,-12.91051000
-224.20000404,-0.70546940,-12.91051000
-224.10000404,-0.70766690,-13.71933000
-224.00000405,-0.70876570,-13.71933000
-223.90000405,-0.70876570,-12.91051000
-223.80000405,-0.71096320,-13.18520000
-223.70000405,-0.71096320,-12.91051000
-223.60000406,-0.71206200,-12.65108000
-223.50000406,-0.71425960,-12.91051000
-223.40000406,-0.71425960,-12.65108000
-223.30000407,-0.71535830,-12.91051000
-223.20000407,-0.71425960,-12.10170000
-223.10000407,-0.71425960,-13.18520000
-223.00000407,-0.71535830,-11.84227000
-222.90000408,-0.71535830,-12.37639000
-222.80000408,-0.71645710,-11.84227000
-222.70000408,-0.71755580,-12.65108000
-222.60000408,-0.71755580,-12.37639000
-222.50000409,-0.71755580,-12.65108000
-222.40000409,-0.71755580,-12.10170000
-222.30000409,-0.71645710,-11.84227000
-222.20000409,-0.71755580,-12.65108000
-222.10000410,-0.71865460,-12.10170000
-222.00000410,-0.71865460,-11.03345000
-221.90000410,-0.71755580,-10.75876000
-221.80000410,-0.71865460,-11.56757000
-221.70000411,-0.71865460,-11.56757000
-221.60000411,-0.71645710,-11.03345000
-221.50000411,-0.71865460,-11.03345000
-221.40000411,-0.71865460,-10.49933000
-221.30000412,-0.71755580,-11.03345000
-221.20000412,-0.71975340,-11.03345000
-221.10000412,-0.71865460,-10.75876000
-221.00000412,-0.71755580,-10.75876000
-220.90000413,-0.71645710,-10.75876000
-220.80000413,-0.71755580,-10.75876000
-220.70000413,-0.71535830,-9.94994400
-220.60000413,-0.71865460,-10.22464000
-220.50000414,-0.71535830,-10.75876000
-220.40000414,-0.71425960,-10.22464000
-220.30000414,-0.71535830,-11.03345000
-220.20000414,-0.71425960,-10.75876000
-220.10000415,-0.71425960,-10.49933000
-220.00000415,-0.71316080,-10.22464000
-219.90000415,-0.71096320,-9.94994400
-219.80000415,-0.71316080,-10.22464000
-219.70000416,-0.71206200,-9.94994400
-219.60000416,-0.71096320,-9.94994400
-219.50000416,-0.70876570,-9.69051400
-219.40000416,-0.70656820,-9.69051400
-219.30000417,-0.70766690,-9.94994400
-219.20000417,-0.70656820,-9.69051400
-219.10000417,-0.70546940,-9.69051400
-219.00000417,-0.70546940,-9.15639000
-218.90000418,-0.70437060,-9.15639000
-218.80000418,-0.70217310,-9.69051400
-218.70000418,-0.70217310,-9.69051400
-218.60000418,-0.70107440,-9.41582100
-218.50000419,-0.69997560,-9.15639000
-218.40000419,-0.69881580,-9.41582100
-218.30000419,-0.69771700,-9.15639000
-218.20000419,-0.69551940,-8.88169900
-218.10000420,-0.69442070,-8.88169900
-218.00000420,-0.69551940,-8.88169900
-217.90000420,-0.69222320,-9.41582100
-217.80000420,-0.69112440,-8.88169900
-217.70000421,-0.68892690,-9.15639000
-217.60000421,-0.68892690,-9.15639000
-217.50000421,-0.68672930,-8.88169900
-217.40000421,-0.68563060,-8.60700700
-217.30000422,-0.68343310,-8.88169900
-217.20000422,-0.68233420,-9.15639000
-217.10000422,-0.68123550,-9.41582100
-217.00000422,-0.67793920,-8.60700700
-216.90000423,-0.67574170,-8.07288500
-216.80000423,-0.67464290,-8.60700700
-216.70000423,-0.67464290,-8.60700700
-216.60000423,-0.67244540,-8.88169900
-216.50000424,-0.67024780,-9.15639000
-216.40000424,-0.66805030,-8.88169900
-216.30000424,-0.66695150,-8.34757600
-216.20000424,-0.66475400,-8.07288500
-216.10000425,-0.66255650,-8.60700700
-216.00000425,-0.66255650,-8.60700700
-215.90000425,-0.65810040,-8.34757600
-215.80000425,-0.65590280,-8.07288500
-215.70000426,-0.65480410,-7.00463900
-215.60000426,-0.65150770,-8.34757600
-215.50000426,-0.65040900,-8.07288500
-215.40000426,-0.64821140,-8.60700700
-215.30000427,-0.64711270,-8.07288500
-215.20000427,-0.64381640,-8.07288500
-215.10000427,-0.64161880,-7.79819300
-215.00000427,-0.63832250,-8.34757600
-214.90000428,-0.63832250,-8.07288500
-214.80000428,-0.63392750,-7.79819300
-214.70000428,-0.63173000,-7.79819300
-214.60000428,-0.62953240,-8.34757600
-214.50000429,-0.62733490,-8.34757600
-214.40000429,-0.62403860,-7.79819300
-214.30000429,-0.62184100,-7.26407000
-214.20000429,-0.62068120,-7.79819300
-214.10000430,-0.61628620,-7.79819300
-214.00000430,-0.61408870,-7.53876200
-213.90000430,-0.61298980,-8.07288500
-213.80000431,-0.60969350,-7.26407000
-213.70000431,-0.60749600,-7.26407000
-213.60000431,-0.60310100,-7.79819300
-213.50000431,-0.60090340,-8.07288500
-213.40000432,-0.59870590,-8.07288500
-213.30000432,-0.59540960,-7.53876200
-213.20000432,-0.59211330,-8.07288500
-213.10000432,-0.58881700,-7.53876200
-213.00000433,-0.58552070,-7.00463900
-212.90000433,-0.58332310,-8.07288500
-212.80000433,-0.57996580,-7.79819300
-212.70000433,-0.57776830,-7.53876200
-212.60000434,-0.57227440,-7.79819300
-212.50000434,-0.57007690,-7.53876200
-212.40000434,-0.56787940,-7.26407000
-212.30000434,-0.56458310,-6.72994700
-212.20000435,-0.56458310,-7.26407000
-212.10000435,-0.56128670,-7.26407000
-212.00000435,-0.55579290,-6.72994700
-211.90000435,-0.55249660,-7.26407000
-211.80000436,-0.54920040,-7.26407000
-211.70000436,-0.54480530,-6.45525600
-211.60000436,-0.54254670,-7.53876200
-211.50000436,-0.53815160,-6.72994700
-211.40000437,-0.53595410,-6.45525600
-211.30000437,-0.53375660,-6.45525600
-211.20000437,-0.53046020,-7.00463900
-211.10000437,-0.52386770,-6.72994700
-211.00000438,-0.52057140,-6.72994700
-210.90000438,-0.51727500,-6.45525600
-210.80000438,-0.51507750,-6.72994700
-210.70000438,-0.50958370,-6.72994700
-210.60000439,-0.50738610,-6.72994700
-210.50000439,-0.50183130,-7.00463900
-210.40000439,-0.49853500,-7.00463900
-210.30000439,-0.49523870,-5.92113300
-210.20000440,-0.49194240,-6.72994700
-210.10000440,-0.49084360,-6.72994700
-210.00000440,-0.48425100,-6.72994700
-209.90000440,-0.47985590,-6.19582400
-209.80000441,-0.47546090,-6.45525600
-209.70000441,-0.47106580,-5.66170100
-209.60000441,-0.46886830,-6.19582400
-209.50000441,-0.46441220,-6.45525600
-209.40000442,-0.46221460,-6.19582400
-209.30000442,-0.45562200,-5.66170100
-209.20000442,-0.45232570,-6.45525600
-209.10000442,-0.44902940,-6.19582400
-209.00000443,-0.44463430,-5.92113300
-208.90000443,-0.43804170,-5.92113300
-208.80000443,-0.43584420,-6.19582400
-208.70000443,-0.43144910,-5.38701000
-208.60000444,-0.42925160,-5.66170100
-208.50000444,-0.42369670,-5.66170100
-208.40000444,-0.41930170,-5.11231800
-208.30000444,-0.41600540,-5.92113300
-208.20000445,-0.40941280,-5.66170100
-208.10000445,-0.40831400,-5.92113300
-208.00000445,-0.40391890,-5.92113300
-207.90000445,-0.39842510,-5.66170100
-207.80000446,-0.39183250,-5.66170100
-207.70000446,-0.38963500,-4.85288700
-207.60000446,-0.38627760,-5.11231800
-207.50000446,-0.37968500,-5.38701000
-207.40000447,-0.37858620,-5.38701000
-207.30000447,-0.37089490,-5.66170100
-207.20000447,-0.36759860,-5.38701000
-207.10000447,-0.36210470,-5.38701000
-207.00000448,-0.35880850,-5.66170100
-206.90000448,-0.35551210,-5.66170100
-206.80000448,-0.34885850,-5.66170100
-206.70000448,-0.34446340,-5.11231800
-206.60000449,-0.34006840,-5.66170100
-206.50000449,-0.33677210,-4.85288700
-206.40000449,-0.33127820,-5.11231800
-206.30000449,-0.32688320,-5.11231800
-206.20000450,-0.32029060,-5.11231800
-206.10000450,-0.31699420,-4.85288700
-206.00000450,-0.31369800,-5.11231800
-205.90000450,-0.31034060,-4.57819500
-205.80000451,-0.30374800,-4.85288700
-205.70000451,-0.29825420,-5.11231800
-205.60000451,-0.29385910,-5.11231800
-205.50000451,-0.28946410,-4.85288700
-205.40000452,-0.28397020,-4.04407300
-205.30000452,-0.27957510,-4.57819500
-205.20000452,-0.27518010,-4.30350400
-205.10000452,-0.26852640,-4.57819500
-205.00000453,-0.26523010,-4.85288700
-204.90000453,-0.25863750,-4.04407300
-204.80000453,-0.25534120,-4.30350400
-204.70000453,-0.24764980,-4.30350400
-204.60000454,-0.24325480,-4.04407300
-204.50000454,-0.24105720,-4.30350400
-204.40000454,-0.23446460,-4.04407300
-204.30000455,-0.23000850,-4.04407300
-204.20000455,-0.22341590,-4.04407300
-204.10000455,-0.21902090,-4.30350400
-204.00000455,-0.21352700,-3.50995000
-203.90000456,-0.21023070,-4.04407300
-203.80000456,-0.20473690,-4.30350400
-203.70000456,-0.19814430,-3.76938100
-203.60000456,-0.19368820,-4.30350400
-203.50000457,-0.18929310,-3.76938100
-203.40000457,-0.18379930,-4.04407300
-203.30000457,-0.17720670,-3.50995000
-203.20000457,-0.17281160,-3.76938100
-203.10000458,-0.16731780,-3.76938100
-203.00000458,-0.16402150,-3.50995000
-202.90000458,-0.15742890,-4.04407300
-202.80000458,-0.15077520,-3.76938100
-202.70000459,-0.14747890,-4.04407300
-202.60000459,-0.14308390,-3.50995000
-202.50000459,-0.13539250,-3.50995000
-202.40000459,-0.13209620,-3.23525800
-202.30000460,-0.12660240,-3.50995000
-202.20000460,-0.12110850,-4.04407300
-202.10000460,-0.11555370,-4.04407300
-202.00000460,-0.10896110,-3.76938100
-201.90000461,-0.10566480,-2.96056600
-201.80000461,-0.10017090,-3.76938100
-201.70000461,-0.09357832,-3.23525800
-201.60000461,-0.08808448,-2.96056600
-201.50000462,-0.08149188,-3.23525800
-201.40000462,-0.07929435,-3.23525800
-201.30000462,-0.07373947,-3.76938100
-201.20000462,-0.06714687,-3.50995000
-201.10000463,-0.06165303,-3.23525800
-201.00000463,-0.05615920,-2.96056600
-200.90000463,-0.04956660,-3.23525800
-200.80000463,-0.04407276,-2.96056600
-200.70000464,-0.04077646,-2.70113500
-200.60000464,-0.03302405,-2.42644400
-200.50000464,-0.02753022,-3.23525800
-200.40000464,-0.02203638,-2.96056600
-200.30000465,-0.01764131,-2.15175200
-200.20000465,-0.01104871,-2.70113500
-200.10000465,-0.00885118,-2.96056600
-200.00000465,0.00000000,-2.70113500
-199.90000466,0.00439507,-2.42644400
-199.80000466,0.01098767,-2.42644400
-199.70000466,0.01648150,-2.70113500
-199.60000466,0.02197534,-2.70113500
-199.50000467,0.02637041,-2.15175200
-199.40000467,0.03296301,-2.15175200
-199.30000467,0.03845684,-2.15175200
-199.20000467,0.04401172,-2.15175200
-199.10000468,0.04840679,-2.15175200
-199.00000468,0.05609816,-1.89232100
-198.90000468,0.06049322,-1.89232100
-198.80000468,0.06708582,-1.89232100
-198.70000469,0.07148089,-1.89232100
-198.60000469,0.07697473,-1.89232100
-198.50000469,0.08252960,-1.35819800
-198.40000469,0.08912221,-1.35819800
-198.30000470,0.09571481,-1.61762900
-198.20000470,0.09901111,-2.15175200
