Frequency,Channel A,Channel C
(ms),(V),(V)

-250.14066273,0.36973510,0.13267610
-250.04066273,0.36424120,0.12895250
-249.94066273,0.35984620,0.12678550
-249.84066273,0.35215480,0.12413010
-249.74066274,0.34879740,0.11982660
-249.64066274,0.34110610,0.11875840
-249.54066274,0.33451350,0.11503480
-249.44066274,0.33011840,0.11341720
-249.34066275,0.32572340,0.11073130
-249.24066275,0.31913070,0.10859480
-249.14066275,0.31363690,0.10484070
-249.04066275,0.30808200,0.10111710
-248.94066276,0.30258820,0.09898059
-248.84066276,0.29709440,0.09791234
-248.74066276,0.29050180,0.09522647
-248.64066276,0.28610670,0.09308998
-248.54066277,0.28171160,0.08878647
-248.44066277,0.27621780,0.08664998
-248.34066277,0.27066290,0.08506288
-248.24066277,0.26407030,0.08130875
-248.14066278,0.25857650,0.07969113
-248.04066278,0.25308260,0.07755463
-247.94066278,0.24758880,0.07596752
-247.84066278,0.24209500,0.07273227
-247.74066279,0.23660110,0.07007691
-247.64066279,0.23104630,0.06952753
-247.54066279,0.22335490,0.06632279
-247.44066279,0.22005860,0.06418630
-247.34066280,0.21456480,0.06150043
-247.24066280,0.20797220,0.06256867
-247.14066280,0.20137960,0.05988280
-247.04066280,0.19698450,0.05774631
-246.94066281,0.19033080,0.05988280
-246.84066281,0.18483700,0.05667806
-246.74066281,0.17934320,0.04758271
-246.64066281,0.17384930,0.04651447
-246.54066282,0.16725670,0.04437798
-246.44066282,0.16286170,0.04330973
-246.34066282,0.15510930,0.04010499
-246.24066282,0.15181300,0.03903675
-246.14066283,0.14631910,0.03848736
-246.04066283,0.13972650,0.03635087
-245.94066283,0.13313390,0.03473324
-245.84066283,0.12983760,0.03473324
-245.74066284,0.12214630,0.03259675
-245.64066284,0.11665240,0.03046026
-245.54066284,0.11219630,0.02884263
-245.44066284,0.10780120,0.02832377
-245.34066285,0.10120860,0.02670614
-245.24066285,0.09461604,0.02511903
-245.14066285,0.08912221,0.02405079
-245.04066286,0.08362837,0.02188377
-244.94066286,0.07923330,0.02081553
-244.84066286,0.07367843,0.01867904
-244.74066286,0.06708582,0.01867904
-244.64066287,0.06159199,0.01547430
-244.54066287,0.05719692,0.01440606
-244.44066287,0.05060432,0.01333781
-244.34066287,0.04620925,0.01065193
-244.24066288,0.03961665,0.00958369
-244.14066288,0.03406177,0.00796606
-244.04066288,0.02856794,0.00531071
-243.94066288,0.02307411,0.00424246
-243.84066289,0.01758027,0.00317422
-243.74066289,0.01208644,0.00100720
-243.64066289,0.00659260,-0.00057990
-243.54066289,0.00000000,-0.00164815
-243.44066290,-0.00555488,-0.00485289
-243.34066290,-0.01104871,-0.00592113
-243.24066290,-0.01434501,-0.00701990
-243.14066290,-0.01983885,-0.00967525
-243.04066291,-0.02643145,-0.01236113
-242.94066291,-0.03302405,-0.01287999
-242.84066291,-0.03741912,-0.01556586
-242.74066291,-0.04187523,-0.01663411
-242.64066292,-0.04956660,-0.01931999
-242.54066292,-0.05396166,-0.02038823
-242.44066292,-0.05945550,-0.02200586
-242.34066292,-0.06385057,-0.02414235
-242.24066293,-0.07154194,-0.02734709
-242.14066293,-0.07593700,-0.02896472
-242.04066293,-0.08149188,-0.02896472
-241.94066293,-0.08808448,-0.03216945
-241.84066294,-0.09138078,-0.03482481
-241.74066294,-0.09687462,-0.03592357
-241.64066294,-0.10126970,-0.03806007
-241.54066294,-0.10896110,-0.03699182
-241.44066295,-0.11225740,-0.03964717
-241.34066295,-0.11781220,-0.04178366
-241.24066295,-0.12440480,-0.04233305
-241.14066295,-0.12879990,-0.04501892
-241.04066296,-0.13429370,-0.04660603
-240.94066296,-0.13978760,-0.04874252
-240.84066296,-0.14308390,-0.04981077
-240.74066296,-0.15077520,-0.05197778
-240.64066297,-0.15407150,-0.04981077
-240.54066297,-0.16182400,-0.04981077
-240.44066297,-0.16621900,-0.05090953
-240.34066297,-0.16841660,-0.05090953
-240.24066298,-0.17610790,-0.05249664
-240.14066298,-0.18160180,-0.05356489
-240.04066298,-0.18709560,-0.05676962
-239.94066298,-0.19149070,-0.05893664
-239.84066299,-0.19594680,-0.06159199
-239.74066299,-0.20253940,-0.06107313
-239.64066299,-0.20693440,-0.06479673
-239.54066299,-0.21242830,-0.06589550
-239.44066300,-0.21792210,-0.06855085
-239.34066300,-0.22231720,-0.07016848
-239.24066300,-0.22781100,-0.07175559
-239.14066300,-0.23336590,-0.07230496
-239.04066301,-0.23776100,-0.07230496
-238.94066301,-0.24325480,-0.07605909
-238.84066301,-0.24764980,-0.07764620
-238.74066301,-0.25314370,-0.08033207
-238.64066302,-0.25753880,-0.08194970
-238.54066302,-0.26193380,-0.08408619
-238.44066302,-0.26742770,-0.08515444
-238.34066302,-0.27298250,-0.08890855
-238.24066303,-0.27847640,-0.09104505
-238.14066303,-0.28177270,-0.09370040
-238.04066303,-0.28506900,-0.09424978
-237.94066303,-0.29166160,-0.09638628
-237.84066304,-0.29825420,-0.09800391
-237.74066304,-0.30155050,-0.10120860
-237.64066304,-0.30594550,-0.10227690
-237.54066304,-0.31150040,-0.10389450
-237.44066305,-0.31699420,-0.10389450
-237.34066305,-0.31919180,-0.10709920
-237.24066305,-0.32468560,-0.10816750
-237.14066305,-0.33017950,-0.11192160
-237.04066306,-0.33457450,-0.11244050
-236.94066306,-0.33787080,-0.11350870
-236.84066306,-0.34226590,-0.11564520
-236.74066306,-0.34885850,-0.11619460
-236.64066307,-0.35331460,-0.11888050
-236.54066307,-0.35661090,-0.11939930
-236.44066307,-0.36100600,-0.12046760
-236.34066307,-0.36540100,-0.12315350
-236.24066308,-0.37089490,-0.12528990
-236.14066308,-0.37528990,-0.12477110
-236.04066308,-0.37968500,-0.12477110
-235.94066308,-0.38298130,-0.12583930
-235.84066309,-0.38847510,-0.12635820
-235.74066309,-0.39293130,-0.12797580
-235.64066309,-0.39732630,-0.12956290
-235.54066310,-0.39952390,-0.12904410
-235.44066310,-0.40611650,-0.13169940
-235.34066310,-0.40721520,-0.13118060
-235.24066310,-0.41380780,-0.12635820
-235.14066311,-0.41710410,-0.12849470
-235.04066311,-0.42259800,-0.12797580
-234.94066311,-0.42699300,-0.12422170
-234.84066311,-0.43035040,-0.11994870
-234.74066312,-0.43474540,-0.12101700
-234.64066312,-0.43914050,-0.11888050
-234.54066312,-0.44243680,-0.11994870
-234.44066312,-0.44902940,-0.11671350
-234.34066313,-0.45122690,-0.11671350
-234.24066313,-0.45562200,-0.11726280
-234.14066313,-0.45891830,-0.11512640
-234.04066313,-0.46551090,-0.11405810
-233.94066314,-0.46886830,-0.11244050
-233.84066314,-0.47106580,-0.11030400
-233.74066314,-0.47546090,-0.10334510
-233.64066314,-0.47765840,-0.10282630
-233.54066315,-0.48425100,-0.10065930
-233.44066315,-0.48644850,-0.09852277
-233.34066315,-0.48864610,-0.10334510
-233.24066315,-0.49194240,-0.10282630
-233.14066316,-0.49633740,-0.10389450
-233.04066316,-0.50293000,-0.10709920
-232.94066316,-0.50628740,-0.10548160
-232.84066316,-0.50848490,-0.10761810
-232.74066317,-0.51178120,-0.10761810
-232.64066317,-0.51507750,-0.10978510
-232.54066317,-0.52057140,-0.10923570
-232.44066317,-0.52276890,-0.10389450
-232.34066318,-0.52606520,-0.10816750
-232.24066318,-0.52826270,-0.10923570
-232.14066318,-0.53265780,-0.10978510
-232.04066318,-0.53705290,-0.11085340
-231.94066319,-0.54144790,-0.10978510
-231.84066319,-0.54480530,-0.11030400
-231.74066319,-0.54810150,-0.11137220
-231.64066319,-0.55029910,-0.11192160
-231.54066320,-0.55469420,-0.11244050
-231.44066320,-0.55908920,-0.11298990
-231.34066320,-0.56018800,-0.10334510
-231.24066320,-0.56348430,-0.11457700
-231.14066321,-0.56787940,-0.11457700
-231.04066321,-0.57227440,-0.10816750
-230.94066321,-0.57227440,-0.09638628
-230.84066321,-0.57666950,-0.09959102
-230.74066322,-0.57886700,-0.10065930
-230.64066322,-0.58332310,-0.10172750
-230.54066322,-0.58552070,-0.08088145
-230.44066322,-0.58771820,-0.08729093
-230.34066323,-0.59101450,-0.09638628
-230.24066323,-0.59540960,-0.09370040
-230.14066323,-0.59650840,-0.08460505
-230.04066323,-0.59980460,-0.08729093
-229.94066324,-0.60310100,-0.08835918
-229.84066324,-0.60529850,-0.08408619
-229.74066324,-0.60859480,-0.08622268
-229.64066324,-0.61189110,-0.07712734
-229.54066325,-0.61518740,-0.07712734
-229.44066325,-0.61738490,-0.07819558
-229.34066325,-0.62068120,-0.07605909
-229.24066325,-0.62403860,-0.07175559
-229.14066326,-0.62293980,-0.06803198
-229.04066326,-0.62733490,-0.06803198
-228.94066326,-0.62843360,-0.06589550
-228.84066326,-0.63282870,-0.06641436
-228.74066327,-0.63502620,-0.06641436
-228.64066327,-0.63502620,-0.06107313
-228.54066327,-0.63832250,-0.05731901
-228.44066327,-0.64381640,-0.05838725
-228.34066328,-0.64271760,-0.05249664
-228.24066328,-0.64711270,-0.03806007
-228.14066328,-0.64821140,-0.03806007
-228.04066328,-0.65040900,-0.03699182
-227.94066329,-0.65260650,-0.03699182
-227.84066329,-0.65480410,-0.03592357
-227.74066329,-0.65700160,-0.03375656
-227.64066329,-0.65919910,-0.03375656
-227.54066330,-0.66029790,-0.03268832
-227.44066330,-0.66255650,-0.03323770
-227.34066330,-0.66585280,-0.03323770
-227.24066330,-0.66805030,-0.03216945
-227.14066331,-0.67134660,-0.03216945
-227.04066331,-0.67134660,-0.03216945
-226.94066331,-0.67354410,-0.03003296
-226.84066331,-0.67354410,-0.03055182
-226.74066332,-0.67574170,-0.03055182
-226.64066332,-0.67903790,-0.03003296
-226.54066332,-0.68013670,-0.02841533
-226.44066332,-0.68123550,-0.03003296
-226.34066333,-0.68233420,-0.03003296
-226.24066333,-0.68453180,-0.03055182
-226.14066333,-0.68563060,-0.02896472
-226.04066334,-0.68782810,-0.02786595
-225.94066334,-0.68892690,-0.02734709
-225.84066334,-0.69002560,-0.02679770
-225.74066334,-0.69222320,-0.02841533
-225.64066335,-0.69442070,-0.02786595
-225.54066335,-0.69332190,-0.02679770
-225.44066335,-0.69551940,-0.02679770
-225.34066335,-0.69771700,-0.02252472
-225.24066336,-0.69771700,-0.02038823
-225.14066336,-0.69881580,-0.02200586
-225.04066336,-0.69997560,-0.02200586
-224.94066336,-0.70107440,-0.02200586
-224.84066337,-0.70327190,-0.02145648
-224.74066337,-0.70437060,-0.02093761
-224.64066337,-0.70546940,-0.02145648
-224.54066337,-0.70437060,-0.02145648
-224.44066338,-0.70656820,-0.02093761
-224.34066338,-0.70766690,-0.02145648
-224.24066338,-0.70986450,-0.02093761
-224.14066338,-0.71096320,-0.01983885
-224.04066339,-0.71096320,-0.01877060
-223.94066339,-0.71096320,-0.01825174
-223.84066339,-0.70986450,-0.01877060
-223.74066339,-0.71316080,-0.01825174
-223.64066340,-0.71206200,-0.01931999
-223.54066340,-0.71535830,-0.01931999
-223.44066340,-0.71425960,-0.01877060
-223.34066340,-0.71316080,-0.01825174
-223.24066341,-0.71645710,-0.01770236
-223.14066341,-0.71645710,-0.01718349
-223.04066341,-0.71425960,-0.01825174
-222.94066341,-0.71755580,-0.01825174
-222.84066342,-0.71975340,-0.01770236
-222.74066342,-0.71865460,-0.01770236
-222.64066342,-0.71975340,-0.01770236
-222.54066342,-0.71865460,-0.01611525
-222.44066343,-0.71865460,-0.01718349
-222.34066343,-0.71865460,-0.01663411
-222.24066343,-0.71975340,-0.01611525
-222.14066343,-0.72195090,-0.01663411
-222.04066344,-0.72085210,-0.01663411
-221.94066344,-0.71975340,-0.01663411
-221.84066344,-0.71975340,-0.01611525
-221.74066344,-0.72085210,-0.01556586
-221.64066345,-0.72085210,-0.01718349
-221.54066345,-0.71975340,-0.01663411
-221.44066345,-0.72085210,-0.01663411
-221.34066345,-0.72195090,-0.01663411
-221.24066346,-0.71975340,-0.01611525
-221.14066346,-0.71865460,-0.01611525
-221.04066346,-0.71865460,-0.01504700
-220.94066346,-0.71865460,-0.01556586
-220.84066347,-0.71755580,-0.01663411
-220.74066347,-0.71865460,-0.01504700
-220.64066347,-0.71865460,-0.01663411
-220.54066347,-0.71645710,-0.01504700
-220.44066348,-0.71645710,-0.01556586
-220.34066348,-0.71645710,-0.01556586
-220.24066348,-0.71645710,-0.01556586
-220.14066348,-0.71645710,-0.01556586
-220.04066349,-0.71425960,-0.01504700
-219.94066349,-0.71316080,-0.01556586
-219.84066349,-0.71316080,-0.01449762
-219.74066349,-0.71425960,-0.01556586
-219.64066350,-0.71096320,-0.01504700
-219.54066350,-0.71096320,-0.01449762
-219.44066350,-0.70986450,-0.01397876
-219.34066350,-0.71096320,-0.01449762
-219.24066351,-0.70876570,-0.01504700
-219.14066351,-0.70656820,-0.01397876
-219.04066351,-0.70656820,-0.01397876
-218.94066351,-0.70766690,-0.01556586
-218.84066352,-0.70217310,-0.01449762
-218.74066352,-0.70546940,-0.01449762
-218.64066352,-0.70327190,-0.01504700
-218.54066352,-0.70107440,-0.01342937
-218.44066353,-0.70107440,-0.01342937
-218.34066353,-0.69881580,-0.01449762
-218.24066353,-0.69661820,-0.01397876
-218.14066353,-0.69661820,-0.01449762
-218.04066354,-0.69661820,-0.01397876
-217.94066354,-0.69442070,-0.01449762
-217.84066354,-0.69222320,-0.01397876
-217.74066354,-0.69002560,-0.01342937
-217.64066355,-0.69112440,-0.01397876
-217.54066355,-0.68892690,-0.01397876
-217.44066355,-0.68672930,-0.01236113
-217.34066355,-0.68563060,-0.01236113
-217.24066356,-0.68343310,-0.01236113
-217.14066356,-0.68233420,-0.01287999
-217.04066356,-0.68013670,-0.01181174
-216.94066356,-0.67903790,-0.01074350
-216.84066357,-0.67684040,-0.01074350
-216.74066357,-0.67354410,-0.01129288
-216.64066357,-0.67244540,-0.00915639
-216.54066358,-0.67024780,-0.00915639
-216.44066358,-0.67134660,-0.01022464
-216.34066358,-0.66695150,-0.01074350
-216.24066358,-0.66695150,-0.00915639
-216.14066359,-0.66365520,-0.01022464
-216.04066359,-0.66365520,-0.01022464
-215.94066359,-0.66029790,-0.01022464
-215.84066359,-0.65810040,-0.01022464
-215.74066360,-0.65700160,-0.00915639
-215.64066360,-0.65590280,-0.00967525
-215.54066360,-0.65370530,-0.00915639
-215.44066360,-0.64931020,-0.01022464
-215.34066361,-0.64821140,-0.00967525
-215.24066361,-0.64601390,-0.00915639
-215.14066361,-0.64271760,-0.00915639
-215.04066361,-0.64161880,-0.00967525
-214.94066362,-0.63942130,-0.00915639
-214.84066362,-0.63722380,-0.01022464
-214.74066362,-0.63392750,-0.00967525
-214.64066362,-0.63173000,-0.01074350
-214.54066363,-0.62733490,-0.01022464
-214.44066363,-0.62733490,-0.01022464
-214.34066363,-0.62293980,-0.01022464
-214.24066363,-0.62068120,-0.00915639
-214.14066364,-0.61738490,-0.00915639
-214.04066364,-0.61738490,-0.00915639
-213.94066364,-0.61298980,-0.00915639
-213.84066364,-0.60969350,-0.00915639
-213.74066365,-0.60639730,-0.00860701
-213.64066365,-0.60310100,-0.00915639
-213.54066365,-0.60310100,-0.00915639
-213.44066365,-0.59980460,-0.00915639
-213.34066366,-0.59650840,-0.00860701
-213.24066366,-0.59540960,-0.00915639
-213.14066366,-0.59211330,-0.00915639
-213.04066366,-0.58771820,-0.00753876
-212.94066367,-0.58552070,-0.00915639
-212.84066367,-0.58332310,-0.00808815
-212.74066367,-0.57996580,-0.00808815
-212.64066367,-0.57447200,-0.00753876
-212.54066368,-0.57227440,-0.00808815
-212.44066368,-0.57007690,-0.00967525
-212.34066368,-0.56678060,-0.00647052
-212.24066368,-0.56458310,-0.00808815
-212.14066369,-0.56128670,-0.00753876
-212.04066369,-0.55799050,-0.00808815
-211.94066369,-0.55359540,-0.00860701
-211.84066369,-0.55139790,-0.00808815
-211.74066370,-0.54700280,-0.00860701
-211.64066370,-0.54364540,-0.00860701
-211.54066370,-0.54034910,-0.00701990
-211.44066370,-0.53485530,-0.00808815
-211.34066371,-0.53265780,-0.00753876
-211.24066371,-0.52936150,-0.00753876
-211.14066371,-0.52496640,-0.00753876
-211.04066371,-0.52386770,-0.00647052
-210.94066372,-0.51947260,-0.00808815
-210.84066372,-0.51727500,-0.00860701
-210.74066372,-0.51178120,-0.00860701
-210.64066372,-0.50848490,-0.00808815
-210.54066373,-0.50512750,-0.00701990
-210.44066373,-0.50183130,-0.00753876
-210.34066373,-0.49743620,-0.00647052
-210.24066373,-0.49304110,-0.00753876
-210.14066374,-0.48974480,-0.00753876
-210.04066374,-0.48754730,-0.00753876
-209.94066374,-0.48205350,-0.00540227
-209.84066374,-0.47875720,-0.00647052
-209.74066375,-0.47326330,-0.00592113
-209.64066375,-0.46996700,-0.00753876
-209.54066375,-0.46886830,-0.00753876
-209.44066375,-0.46331340,-0.00647052
-209.34066376,-0.45891830,-0.00647052
-209.24066376,-0.45342450,-0.00540227
-209.14066376,-0.45232570,-0.00592113
-209.04066376,-0.44463430,-0.00647052
-208.94066377,-0.44353560,-0.00701990
-208.84066377,-0.43694300,-0.00647052
-208.74066377,-0.43364670,-0.00647052
-208.64066377,-0.43035040,-0.00647052
-208.54066378,-0.42699300,-0.00753876
-208.44066378,-0.42040040,-0.00540227
-208.34066378,-0.41710410,-0.00701990
-208.24066378,-0.41380780,-0.00592113
-208.14066379,-0.41051150,-0.00647052
-208.04066379,-0.40282020,-0.00485289
-207.94066379,-0.40062260,-0.00433403
-207.84066379,-0.39622760,-0.00592113
-207.74066380,-0.39183250,-0.00647052
-207.64066380,-0.38627760,-0.00540227
-207.54066380,-0.38188250,-0.00647052
-207.44066380,-0.37638870,-0.00485289
-207.34066381,-0.37309240,-0.00540227
-207.24066381,-0.36869730,-0.00592113
-207.14066381,-0.36320350,-0.00540227
-207.04066382,-0.35990720,-0.00540227
-206.94066382,-0.35661090,-0.00647052
-206.84066382,-0.35331460,-0.00540227
-206.74066382,-0.34885850,-0.00647052
-206.64066383,-0.34336470,-0.00485289
-206.54066383,-0.33787080,-0.00540227
-206.44066383,-0.33347580,-0.00592113
-206.34066383,-0.32798190,-0.00540227
-206.24066384,-0.32358690,-0.00433403
-206.14066384,-0.31919180,-0.00433403
-206.04066384,-0.31589550,-0.00433403
-205.94066384,-0.30924180,-0.00326578
-205.84066385,-0.30484680,-0.00485289
-205.74066385,-0.30045170,-0.00485289
-205.64066385,-0.29495790,-0.00485289
-205.54066385,-0.28946410,-0.00433403
-205.44066386,-0.28616770,-0.00485289
-205.34066386,-0.28067390,-0.00540227
-205.24066386,-0.27408130,-0.00540227
-205.14066386,-0.27072400,-0.00592113
-205.04066387,-0.26523010,-0.00485289
-204.94066387,-0.26083510,-0.00433403
-204.84066387,-0.25424240,-0.00485289
-204.74066387,-0.25094620,-0.00540227
-204.64066388,-0.24655110,-0.00485289
-204.54066388,-0.24105720,-0.00378464
-204.44066388,-0.23556340,-0.00485289
-204.34066388,-0.23110730,-0.00433403
-204.24066389,-0.22671220,-0.00378464
-204.14066389,-0.21902090,-0.00271640
-204.04066389,-0.21462580,-0.00378464
-203.94066389,-0.21023070,-0.00433403
-203.84066390,-0.20693440,-0.00485289
-203.74066390,-0.19924310,-0.00378464
-203.64066390,-0.19594680,-0.00433403
-203.54066390,-0.18929310,-0.00378464
-203.44066391,-0.18489800,-0.00271640
-203.34066391,-0.17940420,-0.00271640
-203.24066391,-0.17500920,-0.00326578
-203.14066391,-0.16951530,-0.00326578
-203.04066392,-0.16512020,-0.00271640
-202.94066392,-0.15852760,-0.00326578
-202.84066392,-0.15077520,-0.00271640
-202.74066392,-0.14747890,-0.00378464
-202.64066393,-0.14198510,-0.00219753
-202.54066393,-0.13759000,-0.00378464
-202.44066393,-0.13209620,-0.00326578
-202.34066393,-0.12770110,-0.00378464
-202.24066394,-0.12110850,-0.00271640
-202.14066394,-0.11671350,-0.00378464
-202.04066394,-0.11115860,-0.00326578
-201.94066394,-0.10566480,-0.00164815
-201.84066395,-0.09907215,-0.00271640
-201.74066395,-0.09577585,-0.00326578
-201.64066395,-0.09028202,-0.00326578
-201.54066395,-0.08368941,-0.00271640
-201.44066396,-0.07703577,-0.00326578
-201.34066396,-0.07373947,-0.00326578
-201.24066396,-0.07044317,-0.00326578
-201.14066396,-0.06275180,-0.00219753
-201.04066397,-0.05945550,-0.00326578
-200.94066397,-0.05176413,-0.00326578
-200.84066397,-0.04627030,-0.00378464
-200.74066397,-0.04077646,-0.00326578
-200.64066398,-0.03632035,-0.00112929
-200.54066398,-0.02862898,-0.00271640
-200.44066398,-0.02423391,-0.00271640
-200.34066398,-0.01764131,-0.00219753
-200.24066399,-0.01324625,-0.00164815
-200.14066399,-0.00665364,-0.00112929
-200.04066399,-0.00445611,-0.00219753
-199.94066399,0.00439507,-0.00164815
-199.84066400,0.00988890,-0.00271640
-199.74066400,0.01428397,-0.00164815
-199.64066400,0.02197534,-0.00164815
-199.54066400,0.02637041,-0.00219753
-199.44066401,0.03076547,-0.00271640
-199.34066401,0.03845684,-0.00271640
-199.24066401,0.04181419,-0.00219753
-199.14066401,0.04840679,-0.00326578
-199.04066402,0.05280185,-0.00164815
-198.94066402,0.05829569,-0.00057990
-198.84066402,0.06488829,-0.00164815
-198.74066402,0.06928336,-0.00057990
-198.64066403,0.07587596,-0.00112929
-198.54066403,0.08143084,-0.00112929
-198.44066403,0.08912221,-0.00112929
-198.34066403,0.09351727,-0.00057990
-198.24066404,0.09901111,-0.00112929
-198.14066404,0.10560370,-0.00112929
-198.04066404,0.10999880,-0.00057990
-197.94066404,0.11549260,0.00048834
-197.84066405,0.12214630,-0.00057990
-197.74066405,0.12544260,-0.00057990
-197.64066405,0.13313390,-0.00112929
-197.54066405,0.13752900,-0.00006104
-197.44066406,0.14412160,0.00100720
-197.34066406,0.14961540,-0.00006104
