Frequency,Channel A,Channel C
(ms),(V),(mV)

-250.18022317,0.37083380,48.92565000
-250.08022317,0.36643880,47.58271000
-249.98022317,0.36094490,45.96508000
-249.88022317,0.35435230,45.96508000
-249.78022318,0.34995730,43.27921000
-249.68022318,0.34550120,43.01978000
-249.58022318,0.33780980,41.40215000
-249.48022318,0.33341470,39.52509000
-249.38022319,0.32792090,37.63276000
-249.28022319,0.32132830,37.37333000
-249.18022319,0.31473570,35.48101000
-249.08022319,0.31143940,34.67220000
-248.98022320,0.30368700,33.60395000
-248.88022320,0.29929190,31.98632000
-248.78022320,0.29269930,31.17751000
-248.68022320,0.28720550,29.83457000
-248.58022321,0.28171160,29.57514000
-248.48022321,0.27731660,27.42339000
-248.38022321,0.27066290,26.61457000
-248.28022321,0.26516910,24.99695000
-248.18022322,0.26077400,24.18813000
-248.08022322,0.25637890,23.37932000
-247.98022322,0.24868760,22.03638000
-247.88022322,0.24319370,20.96813000
-247.78022323,0.23769990,21.50226000
-247.68022323,0.23214500,19.07581000
-247.58022323,0.22665120,18.81638000
-247.48022323,0.22115740,17.19875000
-247.38022324,0.21566350,16.13051000
-247.28022324,0.20907090,15.04700000
-247.18022324,0.20467590,14.23819000
-247.08022324,0.20028080,13.16994000
-246.98022325,0.19478700,12.89525000
-246.88022325,0.18703450,11.55231000
-246.78022325,0.18044190,10.74350000
-246.68022325,0.17494810,9.67525300
-246.58022326,0.16945430,9.40056100
-246.48022326,0.16396040,9.14112900
-246.38022326,0.15846660,8.33231500
-246.28022326,0.15291170,7.24880900
-246.18022327,0.14631910,6.98937800
-246.08022327,0.14192410,6.98937800
-245.98022327,0.13643020,6.18056300
-245.88022327,0.13093640,5.64644100
-245.78022328,0.12434380,4.83762600
-245.68022328,0.11885000,5.09705700
-245.58022328,0.11439380,4.56293400
-245.48022328,0.10780120,4.28824300
-245.38022329,0.10340620,3.21999700
-245.28022329,0.09571481,3.21999700
-245.18022329,0.09022097,2.94530600
-245.08022329,0.08472714,2.94530600
-244.98022330,0.08033207,2.13649100
-244.88022330,0.07587596,1.87706000
-244.78022330,0.06928336,1.87706000
-244.68022330,0.06269076,0.79355380
-244.58022331,0.05829569,0.25943110
-244.48022331,0.05170309,-0.54938340
-244.38022331,0.04730802,0.00000000
-244.28022331,0.04181419,-0.54938340
-244.18022332,0.03516054,-1.35819800
-244.08022332,0.02966671,-1.08350600
-243.98022332,0.02527164,-1.61762900
-243.88022332,0.01867904,-1.89232100
-243.78022333,0.01318520,-2.15175200
-243.68022333,0.00769137,-2.70113500
-243.58022333,0.00109877,-2.96056600
-243.48022334,-0.00555488,-3.50995000
-243.38022334,-0.00994995,-4.30350400
-243.28022334,-0.01434501,-4.30350400
-243.18022334,-0.01983885,-4.57819500
-243.08022335,-0.02533268,-5.11231800
-242.98022335,-0.03192528,-6.19582400
-242.88022335,-0.03632035,-6.72994700
-242.78022335,-0.04407276,-6.72994700
-242.68022336,-0.04846783,-7.79819300
-242.58022336,-0.05396166,-8.60700700
-242.48022336,-0.05835673,-9.15639000
-242.38022336,-0.06385057,-9.69051400
-242.28022337,-0.07044317,-10.75876000
-242.18022337,-0.07373947,-10.49933000
-242.08022337,-0.07929435,-11.30814000
-241.98022337,-0.08588695,-12.10170000
-241.88022338,-0.09028202,-12.37639000
-241.78022338,-0.09687462,-13.71933000
-241.68022338,-0.10236850,-14.25345000
-241.58022338,-0.10786230,-14.52814000
-241.48022339,-0.11225740,-15.33695000
-241.38022339,-0.11781220,-15.87108000
-241.28022339,-0.12440480,-17.21401000
-241.18022339,-0.12879990,-18.02283000
-241.08022340,-0.13319500,-18.29752000
-240.98022340,-0.13868880,-19.36577000
-240.88022340,-0.14308390,-20.17458000
-240.78022340,-0.14747890,-21.24283000
-240.68022341,-0.15517030,-21.24283000
-240.58022341,-0.15962640,-22.60102000
-240.48022341,-0.16621900,-23.13515000
-240.38022341,-0.17171280,-23.39458000
-240.28022342,-0.17500920,-24.73751000
-240.18022342,-0.17830540,-25.28690000
-240.08022342,-0.18599680,-26.62984000
-239.98022342,-0.19149070,-26.35514000
-239.88022343,-0.19484800,-26.88927000
-239.78022343,-0.20144060,-29.04102000
-239.68022343,-0.20583570,-29.04102000
-239.58022343,-0.21242830,-29.31571000
-239.48022344,-0.21792210,-30.38396000
-239.38022344,-0.22121840,-30.65865000
-239.28022344,-0.22561350,-31.74215000
-239.18022344,-0.23220610,-32.53571000
-239.08022345,-0.23666220,-32.81040000
-238.98022345,-0.24215600,-33.61922000
-238.88022345,-0.24655110,-33.89390000
-238.78022345,-0.25204490,-33.89390000
-238.68022346,-0.25424240,-34.68746000
-238.58022346,-0.26083510,-35.23684000
-238.48022346,-0.26632890,-37.11390000
-238.38022346,-0.27072400,-37.11390000
-238.28022347,-0.27737760,-37.38860000
-238.18022347,-0.28067390,-37.64803000
-238.08022347,-0.28726650,-38.45684000
-237.98022347,-0.29166160,-38.99096000
-237.88022348,-0.29385910,-38.99096000
-237.78022348,-0.29935290,-40.33390000
-237.68022348,-0.30374800,-40.07447000
-237.58022348,-0.31034060,-40.60859000
-237.48022349,-0.31479670,-41.41741000
-237.38022349,-0.31919180,-41.95153000
-237.28022349,-0.32248810,-41.95153000
-237.18022349,-0.32688320,-42.48565000
-237.08022350,-0.33347580,-43.03503000
-236.98022350,-0.33677210,-43.03503000
-236.88022350,-0.34226590,-43.82859000
-236.78022350,-0.34775970,-44.37797000
-236.68022351,-0.35221580,-43.56916000
-236.58022351,-0.35551210,-43.03503000
-236.48022351,-0.36100600,-43.29446000
-236.38022351,-0.36649980,-44.10328000
-236.28022352,-0.36869730,-43.56916000
-236.18022352,-0.37419120,-43.82859000
-236.08022352,-0.37748750,-44.10328000
-235.98022352,-0.38408010,-44.63740000
-235.88022353,-0.38737640,-45.98034000
-235.78022353,-0.39183250,-45.18679000
-235.68022353,-0.39622760,-45.72091000
-235.58022353,-0.40062260,-46.25504000
-235.48022354,-0.40501770,-46.78915000
-235.38022354,-0.40831400,-48.13209000
-235.28022354,-0.41380780,-47.06385000
-235.18022354,-0.41600540,-48.40678000
-235.08022355,-0.42369670,-49.74972000
-234.98022355,-0.42699300,-50.02441000
-234.88022355,-0.43035040,-49.74972000
-234.78022355,-0.43584420,-49.74972000
-234.68022356,-0.43694300,-50.28385000
-234.58022356,-0.44353560,-51.09266000
-234.48022356,-0.44573310,-51.09266000
-234.38022356,-0.45012820,-52.17617000
-234.28022357,-0.45232570,-52.96972000
-234.18022357,-0.45891830,-52.71029000
-234.08022357,-0.46221460,-53.24441000
-233.98022358,-0.46441220,-53.51910000
-233.88022358,-0.46996700,-53.77853000
-233.78022358,-0.47326330,-54.32792000
-233.68022358,-0.47875720,-54.86204000
-233.58022359,-0.48205350,-54.58735000
-233.48022359,-0.48425100,-54.86204000
-233.38022359,-0.48974480,-55.12147000
-233.28022359,-0.49304110,-56.20498000
-233.18022360,-0.49633740,-55.12147000
-233.08022360,-0.49963370,-56.47967000
-232.98022360,-0.50628740,-56.47967000
-232.88022360,-0.50848490,-53.77853000
-232.78022361,-0.51068250,-53.24441000
-232.68022361,-0.51507750,-52.96972000
-232.58022361,-0.51837380,-52.96972000
-232.48022361,-0.52276890,-52.96972000
-232.38022362,-0.52496640,-52.17617000
-232.28022362,-0.53046020,-51.90147000
-232.18022362,-0.53375660,-50.55853000
-232.08022362,-0.53485530,-48.13209000
-231.98022363,-0.53925040,-48.40678000
-231.88022363,-0.54364540,-48.40678000
-231.78022363,-0.54700280,-48.40678000
-231.68022363,-0.55029910,-48.13209000
-231.58022364,-0.55359540,-47.87266000
-231.48022364,-0.55799050,-45.98034000
-231.38022364,-0.56018800,-45.98034000
-231.28022364,-0.56458310,-45.98034000
-231.18022365,-0.56678060,-46.78915000
-231.08022365,-0.57007690,-46.52972000
-230.98022365,-0.57227440,-46.78915000
-230.88022365,-0.57666950,-47.06385000
-230.78022366,-0.57996580,-46.78915000
-230.68022366,-0.58216330,-47.32328000
-230.58022366,-0.58442190,-46.78915000
-230.48022366,-0.58771820,-47.59797000
-230.38022367,-0.59211330,-47.06385000
-230.28022367,-0.59321210,-47.06385000
-230.18022367,-0.59540960,-47.32328000
-230.08022367,-0.59980460,-46.78915000
-229.98022368,-0.60090340,-45.44622000
-229.88022368,-0.60529850,-46.25504000
-229.78022368,-0.60859480,-46.52972000
-229.68022368,-0.61079230,-45.72091000
-229.58022369,-0.61298980,-45.44622000
-229.48022369,-0.61518740,-45.44622000
-229.38022369,-0.61848370,-45.44622000
-229.28022369,-0.61848370,-44.63740000
-229.18022370,-0.62293980,-44.91210000
-229.08022370,-0.62513730,-44.37797000
-228.98022370,-0.62733490,-43.56916000
-228.88022370,-0.62953240,-43.29446000
-228.78022371,-0.63173000,-44.10328000
-228.68022371,-0.63612500,-43.56916000
-228.58022371,-0.63722380,-43.29446000
-228.48022371,-0.64052010,-42.76034000
-228.38022372,-0.64271760,-43.03503000
-228.28022372,-0.64381640,-41.67684000
-228.18022372,-0.64711270,-41.95153000
-228.08022372,-0.64931020,-42.22622000
-227.98022373,-0.65150770,-42.22622000
-227.88022373,-0.65370530,-40.33390000
-227.78022373,-0.65480410,-40.33390000
-227.68022373,-0.65810040,-39.54035000
-227.58022374,-0.66145770,-38.18215000
-227.48022374,-0.66145770,-23.94396000
-227.38022374,-0.66255650,-22.86045000
-227.28022374,-0.66695150,-22.86045000
-227.18022375,-0.66914900,-21.51752000
-227.08022375,-0.67134660,-20.98339000
-226.98022375,-0.67354410,-19.89989000
-226.88022375,-0.67464290,-20.44927000
-226.78022376,-0.67574170,-19.36577000
-226.68022376,-0.67684040,-19.36577000
-226.58022376,-0.68013670,-18.83164000
-226.48022376,-0.68013670,-17.48871000
-226.38022377,-0.68233420,-18.55695000
-226.28022377,-0.68233420,-18.02283000
-226.18022377,-0.68453180,-18.02283000
-226.08022377,-0.68453180,-17.48871000
-225.98022378,-0.68672930,-16.14577000
-225.88022378,-0.68892690,-15.59639000
-225.78022378,-0.69112440,-15.59639000
-225.68022378,-0.69222320,-15.33695000
-225.58022379,-0.69332190,-15.33695000
-225.48022379,-0.69442070,-15.59639000
-225.38022379,-0.69551940,-15.06226000
-225.28022379,-0.69771700,-15.06226000
-225.18022380,-0.69881580,-14.52814000
-225.08022380,-0.69997560,-14.80283000
-224.98022380,-0.70107440,-13.99402000
-224.88022380,-0.70107440,-14.25345000
-224.78022381,-0.70327190,-13.71933000
-224.68022381,-0.70327190,-14.52814000
-224.58022381,-0.70546940,-14.25345000
-224.48022382,-0.70766690,-13.99402000
-224.38022382,-0.70546940,-13.71933000
-224.28022382,-0.70876570,-13.71933000
-224.18022382,-0.70876570,-13.99402000
-224.08022383,-0.71096320,-13.99402000
-223.98022383,-0.71206200,-13.71933000
-223.88022383,-0.71096320,-13.44463000
-223.78022383,-0.71206200,-13.44463000
-223.68022384,-0.71425960,-13.71933000
-223.58022384,-0.71316080,-13.44463000
-223.48022384,-0.71425960,-13.99402000
-223.38022384,-0.71535830,-13.71933000
-223.28022385,-0.71425960,-13.44463000
-223.18022385,-0.71645710,-13.71933000
-223.08022385,-0.71645710,-13.18520000
-222.98022385,-0.71425960,-13.18520000
-222.88022386,-0.71755580,-13.44463000
-222.78022386,-0.71645710,-12.91051000
-222.68022386,-0.71645710,-12.91051000
-222.58022386,-0.71865460,-13.18520000
-222.48022387,-0.71755580,-12.91051000
-222.38022387,-0.71975340,-12.91051000
-222.28022387,-0.71755580,-12.37639000
-222.18022387,-0.71865460,-13.44463000
-222.08022388,-0.71975340,-12.37639000
-221.98022388,-0.71865460,-12.91051000
-221.88022388,-0.71975340,-12.91051000
-221.78022388,-0.71865460,-12.65108000
-221.68022389,-0.71975340,-12.37639000
-221.58022389,-0.71865460,-12.91051000
-221.48022389,-0.71755580,-12.10170000
-221.38022389,-0.71865460,-12.65108000
-221.28022390,-0.71975340,-11.56757000
-221.18022390,-0.71975340,-12.37639000
-221.08022390,-0.71755580,-12.37639000
-220.98022390,-0.71865460,-12.65108000
-220.88022391,-0.71865460,-11.84227000
-220.78022391,-0.71975340,-12.10170000
-220.68022391,-0.71865460,-11.56757000
-220.58022391,-0.71535830,-12.37639000
-220.48022392,-0.71535830,-12.65108000
-220.38022392,-0.71535830,-11.84227000
-220.28022392,-0.71425960,-12.10170000
-220.18022392,-0.71535830,-11.56757000
-220.08022393,-0.71316080,-11.84227000
-219.98022393,-0.71425960,-11.84227000
-219.88022393,-0.71206200,-11.84227000
-219.78022393,-0.71206200,-11.56757000
-219.68022394,-0.71206200,-11.30814000
-219.58022394,-0.71096320,-11.30814000
-219.48022394,-0.71096320,-11.30814000
-219.38022394,-0.70876570,-11.56757000
-219.28022395,-0.70876570,-11.30814000
-219.18022395,-0.70766690,-11.30814000
-219.08022395,-0.70546940,-11.30814000
-218.98022395,-0.70546940,-11.30814000
-218.88022396,-0.70546940,-11.56757000
-218.78022396,-0.70327190,-11.56757000
-218.68022396,-0.70107440,-11.30814000
-218.58022396,-0.70107440,-11.03345000
-218.48022397,-0.69881580,-11.56757000
-218.38022397,-0.69771700,-11.56757000
-218.28022397,-0.69661820,-11.56757000
-218.18022397,-0.69661820,-10.49933000
-218.08022398,-0.69442070,-10.49933000
-217.98022398,-0.69332190,-11.30814000
-217.88022398,-0.69222320,-10.49933000
-217.78022398,-0.69112440,-10.49933000
-217.68022399,-0.69002560,-9.94994400
-217.58022399,-0.68672930,-10.75876000
-217.48022399,-0.68563060,-10.49933000
-217.38022399,-0.68233420,-10.22464000
-217.28022400,-0.68123550,-10.75876000
-217.18022400,-0.68233420,-10.22464000
-217.08022400,-0.68123550,-9.94994400
-216.98022400,-0.67903790,-9.41582100
-216.88022401,-0.67793920,-9.94994400
-216.78022401,-0.67464290,-9.69051400
-216.68022401,-0.67244540,-9.94994400
-216.58022401,-0.67244540,-9.41582100
-216.48022402,-0.66805030,-9.15639000
-216.38022402,-0.66805030,-9.41582100
-216.28022402,-0.66475400,-9.94994400
-216.18022402,-0.66365520,-9.69051400
-216.08022403,-0.66145770,-9.41582100
-215.98022403,-0.66029790,-9.69051400
-215.88022403,-0.65919910,-9.15639000
-215.78022403,-0.65810040,-9.41582100
-215.68022404,-0.65260650,-9.41582100
-215.58022404,-0.65150770,-9.69051400
-215.48022404,-0.65040900,-9.15639000
-215.38022404,-0.64931020,-9.69051400
-215.28022405,-0.64601390,-9.41582100
-215.18022405,-0.64381640,-8.60700700
-215.08022405,-0.64271760,-9.41582100
-214.98022405,-0.63832250,-9.41582100
-214.88022406,-0.63502620,-8.88169900
-214.78022406,-0.63392750,-8.60700700
-214.68022406,-0.63063110,-8.88169900
-214.58022407,-0.62953240,-8.88169900
-214.48022407,-0.62623610,-9.15639000
-214.38022407,-0.62623610,-9.15639000
-214.28022407,-0.61958250,-8.88169900
-214.18022408,-0.62068120,-9.41582100
-214.08022408,-0.61738490,-8.88169900
-213.98022408,-0.61408870,-8.34757600
-213.88022408,-0.61079230,-8.60700700
-213.78022409,-0.60749600,-8.34757600
-213.68022409,-0.60529850,-8.60700700
-213.58022409,-0.60200220,-8.34757600
-213.48022409,-0.60090340,-8.34757600
-213.38022410,-0.59540960,-8.34757600
-213.28022410,-0.59321210,-8.60700700
-213.18022410,-0.59211330,-8.07288500
-213.08022410,-0.58881700,-8.60700700
-212.98022411,-0.58442190,-8.34757600
-212.88022411,-0.58106460,-8.60700700
-212.78022411,-0.57886700,-8.34757600
-212.68022411,-0.57776830,-7.79819300
-212.58022412,-0.57117570,-8.34757600
-212.48022412,-0.57007690,-8.60700700
-212.38022412,-0.56568180,-7.79819300
-212.28022412,-0.56458310,-7.53876200
-212.18022413,-0.55799050,-8.07288500
-212.08022413,-0.55689170,-8.07288500
-211.98022413,-0.55359540,-7.53876200
-211.88022413,-0.54810150,-7.79819300
-211.78022414,-0.54700280,-8.07288500
-211.68022414,-0.54364540,-7.79819300
-211.58022414,-0.54144790,-8.34757600
-211.48022414,-0.53595410,-7.79819300
-211.38022415,-0.53046020,-7.53876200
-211.28022415,-0.52936150,-7.79819300
-211.18022415,-0.52496640,-7.79819300
-211.08022415,-0.52167010,-7.26407000
-210.98022416,-0.51837380,-6.72994700
-210.88022416,-0.51617630,-7.00463900
-210.78022416,-0.51068250,-7.79819300
-210.68022416,-0.50958370,-7.00463900
-210.58022417,-0.50293000,-7.53876200
-210.48022417,-0.49963370,-7.00463900
-210.38022417,-0.49743620,-6.45525600
-210.28022417,-0.49413990,-7.53876200
-210.18022418,-0.48974480,-7.53876200
-210.08022418,-0.48534980,-7.53876200
-209.98022418,-0.48205350,-6.72994700
-209.88022418,-0.47875720,-6.72994700
-209.78022419,-0.47436210,-7.00463900
-209.68022419,-0.47106580,-6.45525600
-209.58022419,-0.46667070,-6.72994700
-209.48022419,-0.46221460,-6.72994700
-209.38022420,-0.45781960,-6.72994700
-209.28022420,-0.45562200,-7.00463900
-209.18022420,-0.44902940,-5.92113300
-209.08022420,-0.44683190,-6.72994700
-208.98022421,-0.44133810,-6.45525600
-208.88022421,-0.43914050,-5.92113300
-208.78022421,-0.43474540,-6.19582400
-208.68022421,-0.43035040,-6.45525600
-208.58022422,-0.42589430,-6.19582400
-208.48022422,-0.42259800,-6.19582400
-208.38022422,-0.41820290,-6.19582400
-208.28022422,-0.41490660,-6.19582400
-208.18022423,-0.40831400,-6.45525600
-208.08022423,-0.40501770,-6.19582400
-207.98022423,-0.39952390,-6.45525600
-207.88022423,-0.39622760,-6.19582400
-207.78022424,-0.39183250,-5.66170100
-207.68022424,-0.38627760,-5.92113300
-207.58022424,-0.38188250,-5.66170100
-207.48022424,-0.37968500,-5.66170100
-207.38022425,-0.37419120,-5.38701000
-207.28022425,-0.37089490,-6.19582400
-207.18022425,-0.36430230,-6.19582400
-207.08022425,-0.35990720,-5.92113300
-206.98022426,-0.35551210,-5.92113300
-206.88022426,-0.35331460,-6.19582400
-206.78022426,-0.34446340,-5.66170100
-206.68022426,-0.34226590,-5.38701000
-206.58022427,-0.34006840,-5.11231800
-206.48022427,-0.33347580,-6.19582400
-206.38022427,-0.32908070,-5.38701000
-206.28022427,-0.32468560,-5.92113300
-206.18022428,-0.32029060,-5.66170100
-206.08022428,-0.31479670,-5.11231800
-205.98022428,-0.30924180,-5.38701000
-205.88022428,-0.30594550,-5.11231800
-205.78022429,-0.29935290,-5.66170100
-205.68022429,-0.29495790,-4.30350400
-205.58022429,-0.29056280,-5.11231800
-205.48022429,-0.28616770,-4.30350400
-205.38022430,-0.28177270,-4.57819500
-205.28022430,-0.27627890,-4.85288700
-205.18022430,-0.27072400,-4.85288700
-205.08022431,-0.26632890,-5.11231800
-204.98022431,-0.26083510,-4.85288700
-204.88022431,-0.25753880,-4.57819500
-204.78022431,-0.25094620,-4.30350400
-204.68022432,-0.24655110,-4.85288700
-204.58022432,-0.24215600,-4.30350400
-204.48022432,-0.23776100,-4.85288700
-204.38022432,-0.23220610,-4.57819500
-204.28022433,-0.22671220,-4.85288700
-204.18022433,-0.22011960,-4.04407300
-204.08022433,-0.21572460,-4.04407300
-203.98022433,-0.21132950,-4.57819500
-203.88022434,-0.20583570,-4.57819500
-203.78022434,-0.20144060,-4.04407300
-203.68022434,-0.19368820,-4.04407300
-203.58022434,-0.19149070,-3.76938100
-203.48022435,-0.18599680,-3.76938100
-203.38022435,-0.18160180,-4.57819500
-203.28022435,-0.17610790,-3.76938100
-203.18022435,-0.17061410,-3.76938100
-203.08022436,-0.16512020,-4.30350400
-202.98022436,-0.16072520,-4.04407300
-202.88022436,-0.15517030,-4.04407300
-202.78022436,-0.15187400,-3.50995000
-202.68022437,-0.14418260,-4.04407300
-202.58022437,-0.13759000,-3.50995000
-202.48022437,-0.13429370,-4.04407300
-202.38022437,-0.12770110,-4.04407300
-202.28022438,-0.12330610,-3.76938100
-202.18022438,-0.11781220,-3.76938100
-202.08022438,-0.11115860,-3.23525800
-201.98022438,-0.10676350,-2.96056600
-201.88022439,-0.10126970,-3.50995000
-201.78022439,-0.09687462,-3.50995000
-201.68022439,-0.09028202,-3.23525800
-201.58022439,-0.08698571,-2.96056600
-201.48022440,-0.07929435,-3.23525800
-201.38022440,-0.07373947,-3.76938100
-201.28022440,-0.06934440,-3.23525800
-201.18022440,-0.06275180,-2.70113500
-201.08022441,-0.05725797,-3.50995000
-200.98022441,-0.05176413,-2.96056600
-200.88022441,-0.04736906,-2.96056600
-200.78022441,-0.04187523,-3.23525800
-200.68022442,-0.03632035,-2.42644400
-200.58022442,-0.03082652,-2.42644400
-200.48022442,-0.02423391,-2.96056600
-200.38022442,-0.01874008,-2.42644400
-200.28022443,-0.01434501,-2.15175200
-200.18022443,-0.00775241,-2.70113500
-200.08022443,-0.00335734,-2.70113500
-199.98022443,0.00219753,-2.96056600
-199.88022444,0.00879014,-2.70113500
-199.78022444,0.01318520,-2.42644400
-199.68022444,0.01867904,-2.96056600
-199.58022444,0.02307411,-2.42644400
-199.48022445,0.02966671,-2.15175200
-199.38022445,0.03735808,-2.15175200
-199.28022445,0.04181419,-1.89232100
-199.18022445,0.04620925,-2.15175200
-199.08022446,0.05170309,-1.89232100
-198.98022446,0.05719692,-2.15175200
-198.88022446,0.06378952,-2.42644400
-198.78022446,0.06928336,-1.89232100
-198.68022447,0.07477719,-1.61762900
-198.58022447,0.07923330,-1.89232100
-198.48022447,0.08582591,-1.61762900
-198.38022447,0.09131974,-1.89232100
-198.28022448,0.09681357,-1.61762900
-198.18022448,0.10340620,-2.15175200
