Frequency,Channel A,Channel C
(ms),(V),(mV)

-250.15068832,0.37083380,78.24136000
-250.05068832,0.36534000,77.43254000
-249.95068832,0.35984620,73.93785000
-249.85068832,0.35545110,73.40372000
-249.75068833,0.34879740,69.63435000
-249.65068833,0.34220490,67.75729000
-249.55068833,0.33890860,64.79673000
-249.45068833,0.33341470,61.30203000
-249.35068834,0.32682210,61.02734000
-249.25068834,0.32132830,59.95910000
-249.15068834,0.31583450,58.34147000
-249.05068834,0.30918080,56.18972000
-248.95068835,0.30478570,54.84678000
-248.85068835,0.29929190,54.31266000
-248.75068835,0.29379810,52.95446000
-248.65068835,0.28830420,50.81797000
-248.55068836,0.28281040,49.45977000
-248.45068836,0.27621780,47.04859000
-248.35068836,0.27176170,45.70565000
-248.25068837,0.26626780,43.01978000
-248.15068837,0.25967530,40.05921000
-248.05068837,0.25528020,39.78452000
-247.95068837,0.24758880,38.44158000
-247.85068838,0.24429250,37.09864000
-247.75068838,0.23769990,34.13807000
-247.65068838,0.23104630,32.79514000
-247.55068838,0.22665120,32.79514000
-247.45068839,0.22115740,30.91808000
-247.35068839,0.21346600,30.36869000
-247.25068839,0.21016970,29.83457000
-247.15068839,0.20467590,29.02576000
-247.05068840,0.20028080,27.42339000
-246.95068840,0.19252840,25.53107000
-246.85068840,0.18703450,24.18813000
-246.75068840,0.18263950,24.18813000
-246.65068841,0.17604690,22.03638000
-246.55068841,0.16945430,20.15932000
-246.45068841,0.16396040,18.54169000
-246.35068841,0.15956540,16.93932000
-246.25068842,0.15291170,16.93932000
-246.15068842,0.14741790,14.78757000
-246.05068842,0.14302280,13.97876000
-245.95068842,0.13423270,12.89525000
-245.85068843,0.13093640,11.82700000
-245.75068843,0.12544260,11.01819000
-245.65068843,0.12214630,11.01819000
-245.55068843,0.11549260,11.01819000
-245.45068844,0.10999880,10.48407000
-245.35068844,0.10230740,9.14112900
-245.25068844,0.09791234,8.05762400
-245.15068844,0.09351727,6.71468600
-245.05068845,0.08472714,5.90587200
-244.95068845,0.08033207,4.83762600
-244.85068845,0.07367843,4.56293400
-244.75068845,0.06928336,2.68587400
-244.65068846,0.06488829,2.68587400
-244.55068846,0.05719692,2.41118300
-244.45068846,0.05390062,1.34293700
-244.35068846,0.04620925,1.06824600
-244.25068847,0.04071542,0.25943110
-244.15068847,0.03625931,0.00000000
-244.05068847,0.03076547,-0.80881450
-243.95068847,0.02527164,-0.80881450
-243.85068848,0.01977780,-1.61762900
-243.75068848,0.01538274,-2.15175200
-243.65068848,0.00879014,-1.89232100
-243.55068848,0.00219753,-3.23525800
-243.45068849,-0.00335734,-3.76938100
-243.35068849,-0.00994995,-4.57819500
-243.25068849,-0.01434501,-4.85288700
-243.15068849,-0.01983885,-5.38701000
-243.05068850,-0.02533268,-6.45525600
-242.95068850,-0.03192528,-7.26407000
-242.85068850,-0.03522158,-8.07288500
-242.75068850,-0.04077646,-8.60700700
-242.65068851,-0.04627030,-9.41582100
-242.55068851,-0.05176413,-10.22464000
-242.45068851,-0.05725797,-10.22464000
-242.35068851,-0.06494933,-11.30814000
-242.25068852,-0.06934440,-12.91051000
-242.15068852,-0.07483824,-13.99402000
-242.05068852,-0.07929435,-14.80283000
-241.95068852,-0.08368941,-16.14577000
-241.85068853,-0.09138078,-15.59639000
-241.75068853,-0.09687462,-17.48871000
-241.65068853,-0.10126970,-18.55695000
-241.55068853,-0.10566480,-18.83164000
-241.45068854,-0.11335610,-19.89989000
-241.35068854,-0.11891100,-21.24283000
-241.25068854,-0.12330610,-22.05164000
-241.15068854,-0.12770110,-22.86045000
-241.05068855,-0.13429370,-24.20339000
-240.95068855,-0.13759000,-25.01221000
-240.85068855,-0.14418260,-25.82102000
-240.75068855,-0.14967650,-26.88927000
-240.65068856,-0.15407150,-27.69808000
-240.55068856,-0.15962640,-29.04102000
-240.45068856,-0.16402150,-29.84983000
-240.35068856,-0.17061410,-31.19277000
-240.25068857,-0.17500920,-31.74215000
-240.15068857,-0.17720670,-33.08509000
-240.05068857,-0.18709560,-33.61922000
-239.95068857,-0.19149070,-34.68746000
-239.85068858,-0.19484800,-33.61922000
-239.75068858,-0.20144060,-33.08509000
-239.65068858,-0.20583570,-33.89390000
-239.55068858,-0.21023070,-34.68746000
-239.45068859,-0.21572460,-35.49627000
-239.35068859,-0.21902090,-36.30509000
-239.25068859,-0.22561350,-37.11390000
-239.15068859,-0.23110730,-37.64803000
-239.05068860,-0.23556340,-39.26565000
-238.95068860,-0.24105720,-38.99096000
-238.85068860,-0.24655110,-40.60859000
-238.75068861,-0.25094620,-41.14272000
-238.65068861,-0.25644000,-41.95153000
-238.55068861,-0.25863750,-42.76034000
-238.45068861,-0.26632890,-42.76034000
-238.35068862,-0.26962520,-44.91210000
-238.25068862,-0.27627890,-45.18679000
-238.15068862,-0.27957510,-45.72091000
-238.05068862,-0.28397020,-46.78915000
-237.95068863,-0.28946410,-46.78915000
-237.85068863,-0.29385910,-47.87266000
-237.75068863,-0.30045170,-48.68148000
-237.65068863,-0.30374800,-48.94091000
-237.55068864,-0.30924180,-49.74972000
-237.45068864,-0.31479670,-50.28385000
-237.35068864,-0.31919180,-51.09266000
-237.25068864,-0.32358690,-51.62679000
-237.15068865,-0.32908070,-50.28385000
-237.05068865,-0.33347580,-51.36735000
-236.95068865,-0.33896960,-52.96972000
-236.85068865,-0.34336470,-52.96972000
-236.75068866,-0.34556220,-53.77853000
-236.65068866,-0.35221580,-54.58735000
-236.55068866,-0.35551210,-55.12147000
-236.45068866,-0.36210470,-55.93028000
-236.35068867,-0.36430230,-56.47967000
-236.25068867,-0.37089490,-57.27322000
-236.15068867,-0.37309240,-57.54792000
-236.05068867,-0.37858620,-52.96972000
-235.95068868,-0.38298130,-53.77853000
-235.85068868,-0.38627760,-54.58735000
-235.75068868,-0.39073370,-55.12147000
-235.65068868,-0.39622760,-56.20498000
-235.55068869,-0.39952390,-56.20498000
-235.45068869,-0.40611650,-56.47967000
-235.35068869,-0.40831400,-56.47967000
-235.25068869,-0.41161030,-56.47967000
-235.15068870,-0.41710410,-58.08204000
-235.05068870,-0.42259800,-59.16554000
-234.95068870,-0.42589430,-58.89085000
-234.85068870,-0.43035040,-59.42497000
-234.75068871,-0.43364670,-59.97436000
-234.65068871,-0.43804170,-60.76791000
-234.55068871,-0.44133810,-60.76791000
-234.45068871,-0.44573310,-61.57673000
-234.35068872,-0.45012820,-62.66023000
-234.25068872,-0.45342450,-61.85142000
-234.15068872,-0.45781960,-62.91967000
-234.05068872,-0.46111580,-63.46905000
-233.95068873,-0.46551090,-63.19435000
-233.85068873,-0.47106580,-64.53729000
-233.75068873,-0.47436210,-64.26260000
-233.65068873,-0.47875720,-65.07141000
-233.55068874,-0.48095470,-66.15492000
-233.45068874,-0.48425100,-66.41435000
-233.35068874,-0.48974480,-66.96374000
-233.25068874,-0.49304110,-68.03197000
-233.15068875,-0.49633740,-68.03197000
-233.05068875,-0.49963370,-67.49786000
-232.95068875,-0.50512750,-68.84080000
-232.85068875,-0.50848490,-67.77254000
-232.75068876,-0.51068250,-68.56610000
-232.65068876,-0.51397870,-69.90904000
-232.55068876,-0.51947260,-69.64961000
-232.45068876,-0.52167010,-69.64961000
-232.35068877,-0.52496640,-68.84080000
-232.25068877,-0.52716400,-69.11549000
-232.15068877,-0.53265780,-69.64961000
-232.05068877,-0.53485530,-69.64961000
-231.95068878,-0.53925040,-70.99255000
-231.85068878,-0.54144790,-71.26724000
-231.75068878,-0.54590400,-71.26724000
-231.65068878,-0.55139790,-70.71785000
-231.55068879,-0.55249660,-71.52667000
-231.45068879,-0.55689170,-71.80136000
-231.35068879,-0.56018800,-71.26724000
-231.25068879,-0.56238560,-71.80136000
-231.15068880,-0.56458310,-72.86961000
-231.05068880,-0.57007690,-73.14429000
-230.95068880,-0.57337320,-73.67842000
-230.85068880,-0.57557080,-73.41899000
-230.75068881,-0.57886700,-72.33549000
-230.65068881,-0.58106460,-72.61018000
-230.55068881,-0.58332310,-70.71785000
-230.45068881,-0.58771820,-71.80136000
-230.35068882,-0.59211330,-71.80136000
-230.25068882,-0.59101450,-71.26724000
-230.15068882,-0.59760710,-72.33549000
-230.05068882,-0.59870590,-72.06079000
-229.95068883,-0.60090340,-72.33549000
-229.85068883,-0.60419970,-72.61018000
-229.75068883,-0.60749600,-70.45842000
-229.65068883,-0.60969350,-68.84080000
-229.55068884,-0.61408870,-68.56610000
-229.45068884,-0.61408870,-68.56610000
-229.35068884,-0.61738490,-68.03197000
-229.25068885,-0.62068120,-68.56610000
-229.15068885,-0.62293980,-67.49786000
-229.05068885,-0.62623610,-66.68904000
-228.95068885,-0.62733490,-65.62080000
-228.85068886,-0.62953240,-64.53729000
-228.75068886,-0.63173000,-63.72848000
-228.65068886,-0.63612500,-64.53729000
-228.55068886,-0.63722380,-63.72848000
-228.45068887,-0.63942130,-61.04260000
-228.35068887,-0.64161880,-59.16554000
-228.25068887,-0.64271760,-59.97436000
-228.15068887,-0.64821140,-59.42497000
-228.05068888,-0.65040900,-57.54792000
-227.95068888,-0.65040900,-57.27322000
-227.85068888,-0.65260650,-54.86204000
-227.75068888,-0.65590280,-54.32792000
-227.65068889,-0.65700160,-53.51910000
-227.55068889,-0.66029790,-54.58735000
-227.45068889,-0.66145770,-52.96972000
-227.35068889,-0.66255650,-53.51910000
-227.25068890,-0.66365520,-53.77853000
-227.15068890,-0.66914900,-53.77853000
-227.05068890,-0.67024780,-52.96972000
-226.95068890,-0.67244540,-50.55853000
-226.85068891,-0.67354410,-50.28385000
-226.75068891,-0.67574170,-49.74972000
-226.65068891,-0.67574170,-48.13209000
-226.55068891,-0.67903790,-47.59797000
-226.45068892,-0.67903790,-46.78915000
-226.35068892,-0.68123550,-45.98034000
-226.25068892,-0.68453180,-43.56916000
-226.15068892,-0.68343310,-44.10328000
-226.05068893,-0.68563060,-44.37797000
-225.95068893,-0.68672930,-44.10328000
-225.85068893,-0.68782810,-38.18215000
-225.75068893,-0.69222320,-36.83921000
-225.65068894,-0.69222320,-36.57978000
-225.55068894,-0.69332190,-35.23684000
-225.45068894,-0.69442070,-34.68746000
-225.35068894,-0.69551940,-33.08509000
-225.25068895,-0.69881580,-32.53571000
-225.15068895,-0.69881580,-30.65865000
-225.05068895,-0.70107440,-31.74215000
-224.95068895,-0.70107440,-23.94396000
-224.85068896,-0.70107440,-23.39458000
-224.75068896,-0.70327190,-23.39458000
-224.65068896,-0.70327190,-21.79221000
-224.55068896,-0.70437060,-21.51752000
-224.45068897,-0.70546940,-19.64046000
-224.35068897,-0.70656820,-19.36577000
-224.25068897,-0.70656820,-19.09107000
-224.15068897,-0.70766690,-19.09107000
-224.05068898,-0.70876570,-19.36577000
-223.95068898,-0.70986450,-17.48871000
-223.85068898,-0.71096320,-17.48871000
-223.75068898,-0.71206200,-16.95458000
-223.65068899,-0.71206200,-16.95458000
-223.55068899,-0.71316080,-16.40520000
-223.45068899,-0.71316080,-15.87108000
-223.35068899,-0.71206200,-15.59639000
-223.25068900,-0.71535830,-15.06226000
-223.15068900,-0.71425960,-14.80283000
-223.05068900,-0.71645710,-15.06226000
-222.95068900,-0.71645710,-14.80283000
-222.85068901,-0.71755580,-15.06226000
-222.75068901,-0.71755580,-14.52814000
-222.65068901,-0.71865460,-13.99402000
-222.55068901,-0.71755580,-14.25345000
-222.45068902,-0.71645710,-13.99402000
-222.35068902,-0.71865460,-14.25345000
-222.25068902,-0.71975340,-13.99402000
-222.15068902,-0.71865460,-13.71933000
-222.05068903,-0.71975340,-13.44463000
-221.95068903,-0.71865460,-12.91051000
-221.85068903,-0.71975340,-13.44463000
-221.75068903,-0.71865460,-13.18520000
-221.65068904,-0.71865460,-12.91051000
-221.55068904,-0.71975340,-12.91051000
-221.45068904,-0.71975340,-12.91051000
-221.35068904,-0.71865460,-12.37639000
-221.25068905,-0.71755580,-12.65108000
-221.15068905,-0.71865460,-12.10170000
-221.05068905,-0.71755580,-12.37639000
-220.95068905,-0.71755580,-12.37639000
-220.85068906,-0.71645710,-12.10170000
-220.75068906,-0.71645710,-12.37639000
-220.65068906,-0.71865460,-12.37639000
-220.55068906,-0.71535830,-12.37639000
-220.45068907,-0.71535830,-11.56757000
-220.35068907,-0.71645710,-12.10170000
-220.25068907,-0.71535830,-11.84227000
-220.15068907,-0.71535830,-11.84227000
-220.05068908,-0.71535830,-12.37639000
-219.95068908,-0.71535830,-12.10170000
-219.85068908,-0.71316080,-10.75876000
-219.75068909,-0.71316080,-11.30814000
-219.65068909,-0.71096320,-11.30814000
-219.55068909,-0.70986450,-11.03345000
-219.45068909,-0.70986450,-10.75876000
-219.35068910,-0.70876570,-11.03345000
-219.25068910,-0.70986450,-11.30814000
-219.15068910,-0.70766690,-10.75876000
-219.05068910,-0.70546940,-11.30814000
-218.95068911,-0.70437060,-10.49933000
-218.85068911,-0.70437060,-11.03345000
-218.75068911,-0.70217310,-10.75876000
-218.65068911,-0.70217310,-10.75876000
-218.55068912,-0.70217310,-11.30814000
-218.45068912,-0.69997560,-11.30814000
-218.35068912,-0.69771700,-11.03345000
-218.25068912,-0.69771700,-11.03345000
-218.15068913,-0.69661820,-10.75876000
-218.05068913,-0.69442070,-10.75876000
-217.95068913,-0.69442070,-11.03345000
-217.85068913,-0.69332190,-10.49933000
-217.75068914,-0.69112440,-10.75876000
-217.65068914,-0.68892690,-10.22464000
-217.55068914,-0.68672930,-10.49933000
-217.45068914,-0.68563060,-10.49933000
-217.35068915,-0.68453180,-10.22464000
-217.25068915,-0.68233420,-10.22464000
-217.15068915,-0.68233420,-10.22464000
-217.05068915,-0.68013670,-9.69051400
-216.95068916,-0.67793920,-10.22464000
-216.85068916,-0.67574170,-9.94994400
-216.75068916,-0.67574170,-9.69051400
-216.65068916,-0.67244540,-9.69051400
-216.55068917,-0.67354410,-10.22464000
-216.45068917,-0.67024780,-9.94994400
-216.35068917,-0.66805030,-9.69051400
-216.25068917,-0.66365520,-9.69051400
-216.15068918,-0.66255650,-9.94994400
-216.05068918,-0.66255650,-9.94994400
-215.95068918,-0.65919910,-9.69051400
-215.85068918,-0.65810040,-9.41582100
-215.75068919,-0.65810040,-9.94994400
-215.65068919,-0.65370530,-9.69051400
-215.55068919,-0.65150770,-9.41582100
-215.45068919,-0.65040900,-9.41582100
-215.35068920,-0.64931020,-9.69051400
-215.25068920,-0.64491520,-9.15639000
-215.15068920,-0.64381640,-9.41582100
-215.05068920,-0.64161880,-9.41582100
-214.95068921,-0.63942130,-9.41582100
-214.85068921,-0.63612500,-9.15639000
-214.75068921,-0.63392750,-8.60700700
-214.65068921,-0.63173000,-8.88169900
-214.55068922,-0.62953240,-9.15639000
-214.45068922,-0.62403860,-8.60700700
-214.35068922,-0.62403860,-8.88169900
-214.25068922,-0.61958250,-8.60700700
-214.15068923,-0.61958250,-9.15639000
-214.05068923,-0.61628620,-9.15639000
-213.95068923,-0.61408870,-8.34757600
-213.85068923,-0.61189110,-9.15639000
-213.75068924,-0.60749600,-8.88169900
-213.65068924,-0.60639730,-8.07288500
-213.55068924,-0.60090340,-8.88169900
-213.45068924,-0.59980460,-8.07288500
-213.35068925,-0.59760710,-9.15639000
-213.25068925,-0.59321210,-7.79819300
-213.15068925,-0.59101450,-8.60700700
-213.05068925,-0.58661940,-8.88169900
-212.95068926,-0.58552070,-8.60700700
-212.85068926,-0.58106460,-7.79819300
-212.75068926,-0.57776830,-7.79819300
-212.65068926,-0.57776830,-8.60700700
-212.55068927,-0.57337320,-7.53876200
-212.45068927,-0.57117570,-8.07288500
-212.35068927,-0.56787940,-8.34757600
-212.25068927,-0.56238560,-8.07288500
-212.15068928,-0.56018800,-7.79819300
-212.05068928,-0.55579290,-8.07288500
-211.95068928,-0.55469420,-8.07288500
-211.85068928,-0.55139790,-7.79819300
-211.75068929,-0.54920040,-7.26407000
-211.65068929,-0.54480530,-7.26407000
-211.55068929,-0.54144790,-8.07288500
-211.45068929,-0.53705290,-7.53876200
-211.35068930,-0.53375660,-7.79819300
-211.25068930,-0.52716400,-7.26407000
-211.15068930,-0.52496640,-7.79819300
-211.05068930,-0.52167010,-7.26407000
-210.95068931,-0.51837380,-7.00463900
-210.85068931,-0.51507750,-7.53876200
-210.75068931,-0.51178120,-7.26407000
-210.65068931,-0.50958370,-7.53876200
-210.55068932,-0.50402880,-7.00463900
-210.45068932,-0.49963370,-7.26407000
-210.35068932,-0.49853500,-7.26407000
-210.25068933,-0.49523870,-7.00463900
-210.15068933,-0.48864610,-7.53876200
-210.05068933,-0.48534980,-7.26407000
-209.95068933,-0.48315220,-6.45525600
-209.85068934,-0.47875720,-7.00463900
-209.75068934,-0.47436210,-6.72994700
-209.65068934,-0.47106580,-6.72994700
-209.55068934,-0.46776950,-6.72994700
-209.45068935,-0.46331340,-6.45525600
-209.35068935,-0.46001710,-6.19582400
-209.25068935,-0.45342450,-6.45525600
-209.15068935,-0.45122690,-6.45525600
-209.05068936,-0.44683190,-6.19582400
-208.95068936,-0.44133810,-6.45525600
-208.85068936,-0.43804170,-6.45525600
-208.75068936,-0.43584420,-6.19582400
-208.65068937,-0.43144910,-6.19582400
-208.55068937,-0.42589430,-5.66170100
-208.45068937,-0.42040040,-6.45525600
-208.35068937,-0.41930170,-5.66170100
-208.25068938,-0.41490660,-6.19582400
-208.15068938,-0.40941280,-6.19582400
-208.05068938,-0.40501770,-5.66170100
-207.95068938,-0.40062260,-6.19582400
-207.85068939,-0.39732630,-5.66170100
-207.75068939,-0.39183250,-5.92113300
-207.65068939,-0.38737640,-5.66170100
-207.55068939,-0.38188250,-6.19582400
-207.45068940,-0.37968500,-6.19582400
-207.35068940,-0.37419120,-6.19582400
-207.25068940,-0.36979610,-5.38701000
-207.15068940,-0.36540100,-6.19582400
-207.05068941,-0.35990720,-5.38701000
-206.95068941,-0.35770970,-5.38701000
-206.85068941,-0.35441340,-5.38701000
-206.75068941,-0.34775970,-5.66170100
-206.65068942,-0.34336470,-5.11231800
-206.55068942,-0.33787080,-5.66170100
-206.45068942,-0.33237700,-5.38701000
-206.35068942,-0.32908070,-5.38701000
-206.25068943,-0.32358690,-5.38701000
-206.15068943,-0.32138930,-4.85288700
-206.05068943,-0.31479670,-5.92113300
-205.95068943,-0.31034060,-4.85288700
-205.85068944,-0.30704430,-4.85288700
-205.75068944,-0.30155050,-4.85288700
-205.65068944,-0.29715540,-5.11231800
-205.55068944,-0.29166160,-4.85288700
-205.45068945,-0.28616770,-4.85288700
-205.35068945,-0.28177270,-4.57819500
-205.25068945,-0.27627890,-4.57819500
-205.15068945,-0.27182270,-4.57819500
-205.05068946,-0.26742770,-4.85288700
-204.95068946,-0.26193380,-5.11231800
-204.85068946,-0.25753880,-4.57819500
-204.75068946,-0.25314370,-4.85288700
-204.65068947,-0.24874860,-4.30350400
-204.55068947,-0.24215600,-4.30350400
-204.45068947,-0.23776100,-4.85288700
-204.35068947,-0.23336590,-4.30350400
-204.25068948,-0.22561350,-3.76938100
-204.15068948,-0.22341590,-4.30350400
-204.05068948,-0.21792210,-4.30350400
-203.95068948,-0.21242830,-4.57819500
-203.85068949,-0.20473690,-4.04407300
-203.75068949,-0.20253940,-4.30350400
-203.65068949,-0.19704550,-4.04407300
-203.55068949,-0.18929310,-4.04407300
-203.45068950,-0.18599680,-3.50995000
-203.35068950,-0.18160180,-4.04407300
-203.25068950,-0.17500920,-4.04407300
-203.15068950,-0.16951530,-4.30350400
-203.05068951,-0.16512020,-4.04407300
-202.95068951,-0.15852760,-4.30350400
-202.85068951,-0.15407150,-4.04407300
-202.75068951,-0.14967650,-3.50995000
-202.65068952,-0.14418260,-3.23525800
-202.55068952,-0.14088630,-3.76938100
-202.45068952,-0.13429370,-3.23525800
-202.35068952,-0.12770110,-3.76938100
-202.25068953,-0.12440480,-3.50995000
-202.15068953,-0.11781220,-4.04407300
-202.05068953,-0.11225740,-3.76938100
-201.95068953,-0.10676350,-3.50995000
-201.85068954,-0.10126970,-4.04407300
-201.75068954,-0.09577585,-3.23525800
-201.65068954,-0.09138078,-3.76938100
-201.55068954,-0.08478818,-3.50995000
-201.45068955,-0.08039311,-3.50995000
-201.35068955,-0.07373947,-3.50995000
-201.25068955,-0.06934440,-2.70113500
-201.15068955,-0.06275180,-2.96056600
-201.05068956,-0.05725797,-3.23525800
-200.95068956,-0.05176413,-2.70113500
-200.85068956,-0.04736906,-3.50995000
-200.75068957,-0.04187523,-3.23525800
-200.65068957,-0.03412282,-3.23525800
-200.55068957,-0.03082652,-2.96056600
-200.45068957,-0.02423391,-2.70113500
-200.35068958,-0.01983885,-2.96056600
-200.25068958,-0.01214748,-2.70113500
-200.15068958,-0.00775241,-3.23525800
-200.05068958,-0.00335734,-2.15175200
-199.95068959,0.00109877,-2.70113500
-199.85068959,0.00769137,-2.42644400
-199.75068959,0.01318520,-2.42644400
-199.65068959,0.01977780,-2.15175200
-199.55068960,0.02307411,-2.96056600
-199.45068960,0.02966671,-2.42644400
-199.35068960,0.03516054,-2.42644400
-199.25068960,0.04071542,-1.89232100
-199.15068961,0.04620925,-1.89232100
-199.05068961,0.05170309,-2.15175200
-198.95068961,0.05829569,-2.15175200
-198.85068961,0.06378952,-1.89232100
-198.75068962,0.06928336,-1.35819800
-198.65068962,0.07477719,-1.89232100
-198.55068962,0.08033207,-1.61762900
-198.45068962,0.08582591,-1.35819800
-198.35068963,0.09131974,-1.61762900
-198.25068963,0.09681357,-1.89232100
