Frequency,Channel A,Channel C
(ms),(V),(mV)

-250.17534585,0.37303140,98.40067000
-250.07534585,0.36534000,94.63129000
-249.97534586,0.35984620,92.22012000
-249.87534586,0.35545110,92.47955000
-249.77534586,0.34995730,90.34306000
-249.67534586,0.34440240,81.18666000
-249.57534587,0.33780980,79.05017000
-249.47534587,0.33231600,76.62373000
-249.37534587,0.32792090,75.28078000
-249.27534587,0.32242700,71.78610000
-249.17534588,0.31473570,68.55084000
-249.07534588,0.31143940,69.10023000
-248.97534588,0.30698330,68.01672000
-248.87534588,0.30039070,66.39909000
-248.77534589,0.29379810,64.24734000
-248.67534589,0.28830420,62.64497000
-248.57534589,0.28390920,59.95910000
-248.47534589,0.27731660,57.53265000
-248.37534590,0.27176170,56.99853000
-248.27534590,0.26516910,55.10621000
-248.17534590,0.25857650,56.99853000
-248.07534590,0.25528020,52.16090000
-247.97534591,0.24868760,48.11683000
-247.87534591,0.24429250,44.89684000
-247.77534591,0.23660110,42.47039000
-247.67534591,0.23330480,41.66158000
-247.57534592,0.22775000,38.97570000
-247.47534592,0.22115740,38.97570000
-247.37534592,0.21566350,36.56452000
-247.27534592,0.21016970,34.67220000
-247.17534593,0.20357710,32.52045000
-247.07534593,0.19808330,31.72689000
-246.97534593,0.19362710,30.91808000
-246.87534593,0.18813330,27.42339000
-246.77534594,0.18373820,25.80576000
-246.67534594,0.17604690,23.92870000
-246.57534594,0.17055300,23.11989000
-246.47534594,0.16505920,23.11989000
-246.37534595,0.15846660,20.96813000
-246.27534595,0.15401050,20.69344000
-246.17534595,0.14741790,19.35051000
-246.07534595,0.14192410,18.00757000
-245.97534596,0.13533150,17.19875000
-245.87534596,0.13093640,16.93932000
-245.77534596,0.12544260,14.51288000
-245.67534596,0.11775120,14.51288000
-245.57534597,0.11439380,12.89525000
-245.47534597,0.10780120,11.82700000
-245.37534597,0.10230740,11.55231000
-245.27534598,0.09681357,11.29288000
-245.17534598,0.09022097,8.86643800
-245.07534598,0.08582591,7.78293200
-244.97534598,0.08143084,6.43999500
-244.87534599,0.07587596,5.37174900
-244.77534599,0.07148089,4.83762600
-244.67534599,0.06159199,4.02881200
-244.57534599,0.05829569,2.41118300
-244.47534600,0.05060432,2.41118300
-244.37534600,0.04730802,1.87706000
-244.27534600,0.04071542,0.25943110
-244.17534600,0.03516054,0.25943110
-244.07534601,0.02966671,0.25943110
-243.97534601,0.02637041,-0.27469170
-243.87534601,0.01758027,-0.54938340
-243.77534601,0.01318520,-1.35819800
-243.67534602,0.00879014,-2.15175200
-243.57534602,0.00219753,-3.23525800
-243.47534602,-0.00555488,-3.76938100
-243.37534602,-0.00994995,-4.85288700
-243.27534603,-0.01544378,-4.30350400
-243.17534603,-0.01874008,-6.45525600
-243.07534603,-0.02533268,-7.00463900
-242.97534603,-0.03082652,-7.79819300
-242.87534604,-0.03632035,-8.88169900
-242.77534604,-0.04077646,-9.41582100
-242.67534604,-0.04627030,-9.94994400
-242.57534604,-0.05396166,-11.56757000
-242.47534605,-0.05725797,-12.91051000
-242.37534605,-0.06275180,-13.44463000
-242.27534605,-0.06824563,-15.59639000
-242.17534605,-0.07593700,-16.40520000
-242.07534606,-0.08149188,-18.83164000
-241.97534606,-0.08478818,-18.55695000
-241.87534606,-0.09028202,-19.64046000
-241.77534606,-0.09577585,-21.24283000
-241.67534607,-0.10126970,-22.05164000
-241.57534607,-0.10676350,-22.86045000
-241.47534607,-0.11225740,-24.73751000
-241.37534607,-0.11671350,-25.54633000
-241.27534608,-0.12330610,-27.69808000
-241.17534608,-0.12660240,-28.78159000
-241.07534608,-0.13209620,-29.59040000
-240.97534608,-0.13868880,-30.93334000
-240.87534609,-0.14418260,-30.93334000
-240.77534609,-0.14857770,-32.81040000
-240.67534609,-0.15517030,-34.15334000
-240.57534609,-0.15852760,-34.15334000
-240.47534610,-0.16512020,-35.23684000
-240.37534610,-0.16951530,-36.30509000
-240.27534610,-0.17500920,-37.64803000
-240.17534610,-0.17940420,-36.57978000
-240.07534611,-0.18599680,-37.92271000
-239.97534611,-0.19149070,-38.45684000
-239.87534611,-0.19484800,-38.73153000
-239.77534611,-0.20253940,-38.73153000
-239.67534612,-0.20583570,-40.07447000
-239.57534612,-0.21242830,-40.88329000
-239.47534612,-0.21572460,-41.95153000
-239.37534612,-0.21902090,-43.29446000
-239.27534613,-0.22451470,-44.10328000
-239.17534613,-0.23110730,-45.18679000
-239.07534613,-0.23666220,-46.25504000
-238.97534613,-0.24215600,-48.13209000
-238.87534614,-0.24655110,-48.94091000
-238.77534614,-0.25094620,-50.55853000
-238.67534614,-0.25534120,-50.28385000
-238.57534614,-0.25973630,-52.43560000
-238.47534615,-0.26632890,-52.96972000
-238.37534615,-0.27072400,-53.77853000
-238.27534615,-0.27627890,-53.77853000
-238.17534615,-0.28067390,-54.86204000
-238.07534616,-0.28506900,-55.67085000
-237.97534616,-0.28946410,-55.67085000
-237.87534616,-0.29605660,-57.01379000
-237.77534616,-0.30045170,-57.54792000
-237.67534617,-0.30374800,-58.61616000
-237.57534617,-0.30814310,-59.97436000
-237.47534617,-0.31479670,-59.69967000
-237.37534617,-0.31919180,-60.23379000
-237.27534618,-0.32468560,-61.31730000
-237.17534618,-0.32798190,-62.38554000
-237.07534618,-0.33237700,-63.19435000
-236.97534618,-0.33677210,-63.46905000
-236.87534619,-0.34226590,-64.81199000
-236.77534619,-0.34666100,-66.41435000
-236.67534619,-0.35111710,-67.22317000
-236.57534619,-0.35441340,-66.96374000
-236.47534620,-0.36210470,-68.30667000
-236.37534620,-0.36540100,-67.77254000
-236.27534620,-0.36869730,-69.11549000
-236.17534620,-0.37528990,-69.37492000
-236.07534621,-0.37858620,-69.90904000
-235.97534621,-0.38188250,-69.37492000
-235.87534621,-0.38517890,-69.37492000
-235.77534622,-0.39073370,-68.56610000
-235.67534622,-0.39512880,-63.72848000
-235.57534622,-0.40062260,-63.46905000
-235.47534622,-0.40282020,-64.53729000
-235.37534623,-0.40831400,-64.81199000
-235.27534623,-0.41380780,-65.34610000
-235.17534623,-0.41710410,-66.41435000
-235.07534623,-0.42259800,-66.68904000
-234.97534624,-0.42589430,-67.22317000
-234.87534624,-0.43035040,-67.49786000
-234.77534624,-0.43364670,-67.77254000
-234.67534624,-0.43804170,-68.03197000
-234.57534625,-0.44243680,-67.77254000
-234.47534625,-0.44683190,-66.41435000
-234.37534625,-0.45012820,-67.22317000
-234.27534625,-0.45232570,-66.15492000
-234.17534626,-0.45781960,-63.72848000
-234.07534626,-0.46221460,-63.46905000
-233.97534626,-0.46667070,-62.66023000
-233.87534626,-0.47106580,-62.91967000
-233.77534627,-0.47326330,-62.91967000
-233.67534627,-0.47765840,-62.91967000
-233.57534627,-0.48205350,-63.72848000
-233.47534627,-0.48315220,-62.66023000
-233.37534628,-0.48974480,-63.19435000
-233.27534628,-0.49304110,-63.72848000
-233.17534628,-0.49523870,-62.12611000
-233.07534628,-0.49963370,-61.57673000
-232.97534629,-0.50512750,-52.96972000
-232.87534629,-0.50738610,-51.90147000
-232.77534629,-0.51288000,-49.21560000
-232.67534629,-0.51397870,-47.59797000
-232.57534630,-0.51617630,-46.52972000
-232.47534630,-0.52057140,-47.59797000
-232.37534630,-0.52496640,-48.13209000
-232.27534630,-0.52936150,-49.21560000
-232.17534631,-0.53375660,-48.94091000
-232.07534631,-0.53705290,-48.94091000
-231.97534631,-0.54034910,-48.94091000
-231.87534631,-0.54480530,-48.94091000
-231.77534632,-0.54590400,-48.40678000
-231.67534632,-0.55029910,-49.74972000
-231.57534632,-0.55469420,-49.74972000
-231.47534632,-0.55689170,-49.47503000
-231.37534633,-0.56018800,-50.55853000
-231.27534633,-0.56128670,-50.55853000
-231.17534633,-0.56568180,-50.28385000
-231.07534633,-0.57117570,-50.02441000
-230.97534634,-0.57117570,-50.55853000
-230.87534634,-0.57557080,-50.83323000
-230.77534634,-0.57886700,-50.55853000
-230.67534634,-0.58106460,-49.74972000
-230.57534635,-0.58442190,-50.55853000
-230.47534635,-0.58661940,-48.68148000
-230.37534635,-0.58991580,-48.94091000
-230.27534635,-0.59321210,-48.94091000
-230.17534636,-0.59650840,-49.47503000
-230.07534636,-0.60090340,-49.21560000
-229.97534636,-0.60310100,-48.94091000
-229.87534636,-0.60419970,-49.74972000
-229.77534637,-0.60859480,-50.55853000
-229.67534637,-0.61079230,-50.02441000
-229.57534637,-0.61408870,-50.02441000
-229.47534637,-0.61518740,-50.28385000
-229.37534638,-0.61738490,-50.28385000
-229.27534638,-0.61958250,-49.74972000
-229.17534638,-0.62403860,-50.83323000
-229.07534638,-0.62623610,-50.02441000
-228.97534639,-0.62843360,-50.28385000
-228.87534639,-0.63063110,-50.02441000
-228.77534639,-0.63392750,-49.74972000
-228.67534639,-0.63612500,-50.83323000
-228.57534640,-0.63832250,-50.55853000
-228.47534640,-0.63942130,-51.36735000
-228.37534640,-0.64271760,-51.36735000
-228.27534640,-0.64271760,-51.62679000
-228.17534641,-0.64821140,-50.55853000
-228.07534641,-0.64821140,-50.83323000
-227.97534641,-0.65040900,-50.02441000
-227.87534641,-0.65260650,-50.83323000
-227.77534642,-0.65590280,-50.02441000
-227.67534642,-0.65919910,-51.62679000
-227.57534642,-0.65810040,-50.83323000
-227.47534642,-0.65919910,-51.09266000
-227.37534643,-0.66145770,-50.83323000
-227.27534643,-0.66475400,-50.83323000
-227.17534643,-0.66805030,-51.09266000
-227.07534643,-0.66914900,-50.28385000
-226.97534644,-0.67024780,-50.83323000
-226.87534644,-0.67354410,-50.28385000
-226.77534644,-0.67354410,-50.02441000
-226.67534644,-0.67793920,-51.62679000
-226.57534645,-0.67903790,-51.90147000
-226.47534645,-0.68013670,-50.83323000
-226.37534645,-0.68343310,-50.55853000
-226.27534646,-0.68233420,-51.09266000
-226.17534646,-0.68453180,-50.55853000
-226.07534646,-0.68453180,-49.47503000
-225.97534646,-0.68672930,-50.02441000
-225.87534647,-0.68782810,-49.74972000
-225.77534647,-0.69002560,-49.47503000
-225.67534647,-0.69112440,-50.83323000
-225.57534647,-0.69222320,-49.74972000
-225.47534648,-0.69332190,-50.55853000
-225.37534648,-0.69661820,-51.36735000
-225.27534648,-0.69661820,-50.02441000
-225.17534648,-0.69661820,-49.47503000
-225.07534649,-0.69771700,-50.28385000
-224.97534649,-0.70107440,-48.40678000
-224.87534649,-0.70107440,-49.21560000
-224.77534649,-0.70327190,-49.47503000
-224.67534650,-0.70217310,-49.21560000
-224.57534650,-0.70546940,-47.59797000
-224.47534650,-0.70327190,-49.21560000
-224.37534650,-0.70546940,-47.87266000
-224.27534651,-0.70766690,-48.13209000
-224.17534651,-0.70876570,-47.32328000
-224.07534651,-0.70986450,-48.13209000
-223.97534651,-0.71096320,-47.59797000
-223.87534652,-0.71096320,-47.06385000
-223.77534652,-0.70986450,-46.52972000
-223.67534652,-0.71096320,-45.98034000
-223.57534652,-0.71206200,-45.44622000
-223.47534653,-0.71316080,-45.18679000
-223.37534653,-0.71206200,-38.99096000
-223.27534653,-0.71535830,-33.08509000
-223.17534653,-0.71425960,-31.19277000
-223.07534654,-0.71645710,-30.93334000
-222.97534654,-0.71425960,-30.12453000
-222.87534654,-0.71645710,-30.38396000
-222.77534654,-0.71755580,-29.04102000
-222.67534655,-0.71645710,-29.59040000
-222.57534655,-0.71755580,-28.50690000
-222.47534655,-0.71535830,-27.97277000
-222.37534655,-0.71865460,-27.97277000
-222.27534656,-0.71865460,-28.24747000
-222.17534656,-0.71755580,-27.69808000
-222.07534656,-0.71865460,-26.88927000
-221.97534656,-0.71865460,-26.35514000
-221.87534657,-0.71865460,-26.09571000
-221.77534657,-0.71865460,-26.35514000
-221.67534657,-0.71755580,-25.54633000
-221.57534657,-0.71865460,-25.54633000
-221.47534658,-0.71865460,-25.01221000
-221.37534658,-0.72085210,-24.73751000
-221.27534658,-0.71865460,-24.73751000
-221.17534658,-0.71975340,-25.01221000
-221.07534659,-0.71645710,-23.94396000
-220.97534659,-0.71645710,-24.20339000
-220.87534659,-0.71645710,-23.66927000
-220.77534659,-0.71755580,-23.94396000
-220.67534660,-0.71755580,-24.20339000
-220.57534660,-0.71535830,-20.17458000
-220.47534660,-0.71535830,-20.98339000
-220.37534660,-0.71535830,-19.89989000
-220.27534661,-0.71645710,-17.74814000
-220.17534661,-0.71425960,-17.48871000
-220.07534661,-0.71316080,-14.80283000
-219.97534661,-0.71425960,-13.44463000
-219.87534662,-0.71206200,-13.44463000
-219.77534662,-0.71206200,-12.91051000
-219.67534662,-0.70986450,-12.65108000
-219.57534662,-0.71096320,-12.91051000
-219.47534663,-0.70986450,-12.91051000
-219.37534663,-0.70656820,-12.91051000
-219.27534663,-0.70876570,-12.65108000
-219.17534663,-0.70766690,-11.84227000
-219.07534664,-0.70546940,-12.37639000
-218.97534664,-0.70546940,-12.37639000
-218.87534664,-0.70217310,-13.99402000
-218.77534664,-0.70327190,-15.33695000
-218.67534665,-0.70217310,-13.71933000
-218.57534665,-0.70217310,-12.37639000
-218.47534665,-0.69997560,-12.10170000
-218.37534665,-0.69771700,-12.10170000
-218.27534666,-0.69661820,-11.30814000
-218.17534666,-0.69551940,-11.84227000
-218.07534666,-0.69332190,-12.10170000
-217.97534666,-0.69332190,-11.56757000
-217.87534667,-0.69332190,-11.30814000
-217.77534667,-0.69222320,-11.84227000
-217.67534667,-0.68782810,-11.30814000
-217.57534667,-0.68782810,-11.56757000
-217.47534668,-0.68672930,-11.03345000
-217.37534668,-0.68343310,-10.22464000
-217.27534668,-0.68233420,-11.30814000
-217.17534668,-0.68233420,-11.84227000
-217.07534669,-0.67793920,-11.03345000
-216.97534669,-0.67903790,-10.75876000
-216.87534669,-0.67793920,-11.30814000
-216.77534670,-0.67464290,-11.03345000
-216.67534670,-0.67354410,-10.22464000
-216.57534670,-0.67134660,-10.75876000
-216.47534670,-0.66805030,-10.22464000
-216.37534671,-0.66805030,-10.49933000
-216.27534671,-0.66365520,-9.94994400
-216.17534671,-0.66365520,-10.22464000
-216.07534671,-0.66365520,-9.94994400
-215.97534672,-0.65919910,-10.22464000
-215.87534672,-0.65810040,-10.22464000
-215.77534672,-0.65810040,-9.69051400
-215.67534672,-0.65150770,-9.94994400
-215.57534673,-0.65260650,-9.41582100
-215.47534673,-0.64931020,-9.15639000
-215.37534673,-0.64821140,-9.69051400
-215.27534673,-0.64491520,-9.94994400
-215.17534674,-0.64271760,-9.41582100
-215.07534674,-0.64161880,-9.41582100
-214.97534674,-0.63722380,-8.88169900
-214.87534674,-0.63612500,-9.15639000
-214.77534675,-0.63392750,-8.88169900
-214.67534675,-0.63173000,-9.69051400
-214.57534675,-0.62843360,-9.69051400
-214.47534675,-0.62513730,-8.88169900
-214.37534676,-0.62293980,-8.88169900
-214.27534676,-0.62068120,-9.15639000
-214.17534676,-0.61848370,-8.88169900
-214.07534676,-0.61408870,-9.41582100
-213.97534677,-0.61298980,-8.88169900
-213.87534677,-0.60969350,-8.34757600
-213.77534677,-0.60749600,-9.15639000
-213.67534677,-0.60310100,-8.88169900
-213.57534678,-0.60200220,-8.88169900
-213.47534678,-0.59870590,-8.88169900
-213.37534678,-0.59650840,-8.34757600
-213.27534678,-0.59431080,-8.88169900
-213.17534679,-0.59211330,-8.60700700
-213.07534679,-0.58771820,-8.88169900
-212.97534679,-0.58552070,-7.79819300
-212.87534679,-0.58106460,-7.53876200
-212.77534680,-0.57776830,-8.34757600
-212.67534680,-0.57666950,-8.60700700
-212.57534680,-0.57447200,-8.60700700
-212.47534680,-0.56897810,-7.79819300
-212.37534681,-0.56678060,-8.34757600
-212.27534681,-0.56238560,-8.07288500
-212.17534681,-0.55908920,-8.60700700
-212.07534681,-0.55469420,-7.79819300
-211.97534682,-0.55469420,-8.07288500
-211.87534682,-0.55029910,-8.34757600
-211.77534682,-0.54700280,-7.53876200
-211.67534682,-0.54590400,-7.79819300
-211.57534683,-0.54034910,-7.79819300
-211.47534683,-0.53705290,-7.79819300
-211.37534683,-0.53375660,-8.07288500
-211.27534683,-0.53046020,-7.26407000
-211.17534684,-0.52716400,-7.26407000
-211.07534684,-0.52386770,-7.53876200
-210.97534684,-0.51947260,-7.79819300
-210.87534684,-0.51617630,-8.34757600
-210.77534685,-0.51178120,-7.53876200
-210.67534685,-0.50848490,-7.26407000
-210.57534685,-0.50628740,-7.53876200
-210.47534685,-0.49963370,-7.79819300
-210.37534686,-0.49633740,-7.53876200
-210.27534686,-0.49413990,-7.00463900
-210.17534686,-0.48864610,-7.26407000
-210.07534686,-0.48754730,-6.72994700
-209.97534687,-0.48205350,-7.26407000
-209.87534687,-0.47765840,-6.72994700
-209.77534687,-0.47436210,-6.45525600
-209.67534687,-0.47216460,-5.92113300
-209.57534688,-0.46551090,-7.00463900
-209.47534688,-0.46221460,-6.72994700
-209.37534688,-0.46001710,-6.72994700
-209.27534688,-0.45562200,-7.00463900
-209.17534689,-0.45012820,-6.72994700
-209.07534689,-0.44683190,-6.45525600
-208.97534689,-0.44133810,-6.19582400
-208.87534689,-0.44023930,-6.72994700
-208.77534690,-0.43364670,-6.72994700
-208.67534690,-0.43035040,-6.19582400
-208.57534690,-0.42479550,-5.92113300
-208.47534690,-0.42369670,-6.19582400
-208.37534691,-0.41930170,-6.45525600
-208.27534691,-0.41490660,-5.92113300
-208.17534691,-0.40941280,-6.19582400
-208.07534691,-0.40611650,-6.19582400
-207.97534692,-0.39952390,-5.92113300
-207.87534692,-0.39842510,-6.19582400
-207.77534692,-0.39403000,-6.19582400
-207.67534692,-0.38627760,-5.92113300
-207.57534693,-0.38408010,-6.19582400
-207.47534693,-0.37968500,-6.19582400
-207.37534693,-0.37309240,-5.66170100
-207.27534694,-0.36979610,-5.92113300
-207.17534694,-0.36649980,-5.38701000
-207.07534694,-0.35990720,-6.19582400
-206.97534694,-0.35551210,-5.66170100
-206.87534695,-0.35331460,-5.66170100
-206.77534695,-0.34885850,-5.66170100
-206.67534695,-0.34336470,-5.38701000
-206.57534695,-0.34006840,-5.11231800
-206.47534696,-0.33457450,-5.38701000
-206.37534696,-0.32908070,-5.92113300
-206.27534696,-0.32468560,-5.11231800
-206.17534696,-0.32029060,-5.92113300
-206.07534697,-0.31479670,-5.11231800
-205.97534697,-0.31034060,-5.66170100
-205.87534697,-0.30594550,-5.11231800
-205.77534697,-0.30155050,-4.57819500
-205.67534698,-0.29715540,-4.85288700
-205.57534698,-0.29056280,-4.57819500
-205.47534698,-0.28616770,-4.85288700
-205.37534698,-0.28287140,-5.11231800
-205.27534699,-0.27627890,-4.85288700
-205.17534699,-0.27182270,-4.57819500
-205.07534699,-0.26523010,-4.57819500
-204.97534699,-0.26303260,-4.30350400
-204.87534700,-0.25863750,-5.11231800
-204.77534700,-0.25204490,-4.04407300
-204.67534700,-0.24874860,-4.57819500
-204.57534700,-0.24105720,-4.30350400
-204.47534701,-0.23776100,-4.85288700
-204.37534701,-0.23110730,-4.30350400
-204.27534701,-0.22781100,-4.04407300
-204.17534701,-0.22231720,-3.76938100
-204.07534702,-0.21902090,-4.30350400
-203.97534702,-0.21132950,-3.76938100
-203.87534702,-0.20693440,-3.76938100
-203.77534702,-0.20034180,-4.04407300
-203.67534703,-0.19704550,-4.30350400
-203.57534703,-0.19258940,-3.76938100
-203.47534703,-0.18599680,-4.04407300
-203.37534703,-0.18050300,-4.04407300
-203.27534704,-0.17720670,-3.76938100
-203.17534704,-0.17171280,-3.76938100
-203.07534704,-0.16621900,-3.76938100
-202.97534704,-0.16072520,-4.30350400
-202.87534705,-0.15407150,-4.04407300
-202.77534705,-0.15077520,-3.50995000
-202.67534705,-0.14308390,-3.23525800
-202.57534705,-0.13978760,-3.76938100
-202.47534706,-0.13429370,-3.50995000
-202.37534706,-0.12660240,-3.50995000
-202.27534706,-0.12330610,-4.04407300
-202.17534706,-0.11891100,-4.04407300
-202.07534707,-0.11335610,-3.23525800
-201.97534707,-0.10786230,-3.76938100
-201.87534707,-0.10126970,-3.76938100
-201.77534707,-0.09687462,-3.76938100
-201.67534708,-0.09138078,-2.96056600
-201.57534708,-0.08588695,-3.50995000
-201.47534708,-0.08149188,-3.50995000
-201.37534708,-0.07373947,-3.50995000
-201.27534709,-0.07044317,-3.50995000
-201.17534709,-0.06494933,-2.15175200
-201.07534709,-0.05835673,-3.23525800
-200.97534709,-0.05286290,-3.50995000
-200.87534710,-0.04627030,-2.96056600
-200.77534710,-0.04187523,-2.96056600
-200.67534710,-0.03522158,-3.50995000
-200.57534710,-0.02972775,-2.96056600
-200.47534711,-0.02533268,-2.96056600
-200.37534711,-0.01983885,-3.23525800
-200.27534711,-0.01324625,-3.23525800
-200.17534711,-0.00885118,-2.42644400
-200.07534712,-0.00445611,-2.70113500
-199.97534712,0.00219753,-2.70113500
-199.87534712,0.00879014,-2.42644400
-199.77534712,0.01208644,-2.70113500
-199.67534713,0.01867904,-2.96056600
-199.57534713,0.02307411,-2.70113500
-199.47534713,0.02966671,-2.70113500
-199.37534713,0.03516054,-1.89232100
-199.27534714,0.04181419,-2.15175200
-199.17534714,0.04620925,-2.42644400
-199.07534714,0.05280185,-2.15175200
-198.97534714,0.05609816,-1.61762900
-198.87534715,0.06269076,-1.89232100
-198.77534715,0.06928336,-2.15175200
-198.67534715,0.07477719,-1.35819800
-198.57534715,0.08033207,-1.35819800
-198.47534716,0.08692467,-1.08350600
-198.37534716,0.09131974,-1.35819800
-198.27534716,0.09791234,-1.08350600
