Frequency,Channel A,Channel C
(ms),(V),(mV)

-250.18022317,0.37193260,91.94542000
-250.08022317,0.36643880,91.13660000
-249.98022317,0.36094490,90.06837000
-249.88022317,0.35545110,88.19130000
-249.78022318,0.34879740,86.29898000
-249.68022318,0.34550120,84.95605000
-249.58022318,0.33780980,81.73605000
-249.48022318,0.33121720,77.69198000
-249.38022319,0.32682210,76.62373000
-249.28022319,0.32242700,73.93785000
-249.18022319,0.31693320,72.59492000
-249.08022319,0.31027960,73.66316000
-248.98022320,0.30588450,71.51141000
-248.88022320,0.29929190,67.20791000
-248.78022320,0.29599560,65.60554000
-248.68022320,0.28940300,61.83616000
-248.58022321,0.28281040,60.21853000
-248.48022321,0.27621780,56.72384000
-248.38022321,0.27176170,54.31266000
-248.28022321,0.26516910,53.22915000
-248.18022322,0.26187280,50.54327000
-248.08022322,0.25528020,49.45977000
-247.98022322,0.24868760,44.89684000
-247.88022322,0.24319370,43.27921000
-247.78022323,0.23989740,41.93627000
-247.68022323,0.23104630,40.31864000
-247.58022323,0.22665120,38.97570000
-247.48022323,0.22225610,37.37333000
-247.38022324,0.21566350,36.01514000
-247.28022324,0.21016970,33.06983000
-247.18022324,0.20467590,32.26102000
-247.08022324,0.19808330,30.64339000
-246.98022325,0.19252840,29.30045000
-246.88022325,0.18593580,28.23220000
-246.78022325,0.18154070,27.14870000
-246.68022325,0.17494810,24.46282000
-246.58022326,0.17165180,23.37932000
-246.48022326,0.16286170,22.31107000
-246.38022326,0.15846660,20.69344000
-246.28022326,0.15291170,19.62520000
-246.18022327,0.14961540,19.07581000
-246.08022327,0.14192410,18.28226000
-245.98022327,0.13643020,17.19875000
-245.88022327,0.13203520,17.47345000
-245.78022328,0.12434380,14.51288000
-245.68022328,0.11994870,13.16994000
-245.58022328,0.11439380,12.63582000
-245.48022328,0.10890000,10.48407000
-245.38022329,0.10340620,10.48407000
-245.28022329,0.09791234,9.93468400
-245.18022329,0.09022097,8.59174600
-245.08022329,0.08692467,8.05762400
-244.98022330,0.08033207,7.52350100
-244.88022330,0.07477719,6.43999500
-244.78022330,0.06818459,5.90587200
-244.68022330,0.06269076,4.83762600
-244.58022331,0.05829569,4.28824300
-244.48022331,0.05280185,3.75412000
-244.38022331,0.04620925,2.13649100
-244.28022331,0.04181419,2.41118300
-244.18022332,0.03406177,1.60236800
-244.08022332,0.02966671,1.06824600
-243.98022332,0.02527164,0.00000000
-243.88022332,0.01867904,-1.08350600
-243.78022333,0.01318520,-1.35819800
-243.68022333,0.00769137,-1.89232100
-243.58022333,0.00109877,-3.50995000
-243.48022334,-0.00225858,-3.76938100
-243.38022334,-0.00885118,-4.04407300
-243.28022334,-0.01434501,-5.66170100
-243.18022334,-0.01874008,-6.72994700
-243.08022335,-0.02423391,-6.72994700
-242.98022335,-0.03082652,-8.07288500
-242.88022335,-0.03522158,-8.07288500
-242.78022335,-0.04077646,-10.49933000
-242.68022336,-0.04627030,-11.30814000
-242.58022336,-0.05396166,-11.03345000
-242.48022336,-0.05725797,-12.91051000
-242.38022336,-0.06494933,-14.25345000
-242.28022337,-0.06824563,-15.33695000
-242.18022337,-0.07373947,-16.67989000
-242.08022337,-0.08039311,-17.48871000
-241.98022337,-0.08478818,-19.36577000
-241.88022338,-0.09028202,-20.70870000
-241.78022338,-0.09577585,-22.32633000
-241.68022338,-0.10017090,-22.86045000
-241.58022338,-0.10566480,-24.20339000
-241.48022339,-0.11115860,-25.82102000
-241.38022339,-0.11671350,-27.97277000
-241.28022339,-0.12220730,-29.31571000
-241.18022339,-0.12660240,-30.38396000
-241.08022340,-0.13209620,-32.53571000
-240.98022340,-0.13868880,-34.15334000
-240.88022340,-0.14418260,-35.49627000
-240.78022340,-0.14857770,-36.57978000
-240.68022341,-0.15297280,-38.45684000
-240.58022341,-0.15852760,-39.54035000
-240.48022341,-0.16512020,-41.41741000
-240.38022341,-0.16951530,-43.03503000
-240.28022342,-0.17610790,-44.37797000
-240.18022342,-0.17940420,-46.78915000
-240.08022342,-0.18709560,-47.59797000
-239.98022342,-0.19149070,-49.21560000
-239.88022343,-0.19594680,-51.62679000
-239.78022343,-0.20034180,-52.17617000
-239.68022343,-0.20363810,-54.86204000
-239.58022343,-0.21132950,-56.73910000
-239.48022344,-0.21462580,-57.01379000
-239.38022344,-0.22011960,-57.82261000
-239.28022344,-0.22451470,-58.61616000
-239.18022344,-0.22890980,-57.01379000
-239.08022345,-0.23556340,-55.67085000
-238.98022345,-0.23995850,-54.05323000
-238.88022345,-0.24545230,-55.67085000
-238.78022345,-0.25094620,-55.93028000
-238.68022346,-0.25534120,-57.54792000
-238.58022346,-0.25973630,-58.61616000
-238.48022346,-0.26413140,-59.97436000
-238.38022346,-0.27182270,-60.50848000
-238.28022347,-0.27627890,-62.38554000
-238.18022347,-0.28177270,-63.19435000
-238.08022347,-0.28506900,-64.81199000
-237.98022347,-0.29056280,-66.15492000
-237.88022348,-0.29605660,-66.96374000
-237.78022348,-0.30045170,-68.30667000
-237.68022348,-0.30594550,-69.64961000
-237.58022348,-0.30924180,-69.90904000
-237.48022349,-0.31369800,-70.71785000
-237.38022349,-0.32029060,-72.06079000
-237.28022349,-0.32358690,-72.61018000
-237.18022349,-0.32798190,-72.61018000
-237.08022350,-0.33237700,-73.95312000
-236.98022350,-0.33677210,-75.29605000
-236.88022350,-0.34226590,-75.29605000
-236.78022350,-0.34666100,-76.36430000
-236.68022351,-0.35111710,-77.98193000
-236.58022351,-0.35441340,-78.51604000
-236.48022351,-0.35990720,-79.32487000
-236.38022351,-0.36540100,-80.66780000
-236.28022352,-0.36869730,-80.40836000
-236.18022352,-0.37309240,-81.20192000
-236.08022352,-0.37858620,-82.56012000
-235.98022352,-0.38078380,-82.56012000
-235.88022353,-0.38517890,-82.28543000
-235.78022353,-0.39073370,-83.09424000
-235.68022353,-0.39622760,-84.16249000
-235.58022353,-0.40062260,-84.71188000
-235.48022354,-0.40501770,-84.71188000
-235.38022354,-0.40831400,-85.24599000
-235.28022354,-0.41270910,-86.31424000
-235.18022354,-0.41600540,-86.84837000
-235.08022355,-0.42259800,-87.39775000
-234.98022355,-0.42259800,-88.20656000
-234.88022355,-0.43035040,-89.00011000
-234.78022355,-0.43254790,-89.27480000
-234.68022356,-0.43694300,-87.93187000
-234.58022356,-0.44243680,-86.05481000
-234.48022356,-0.44573310,-84.71188000
-234.38022356,-0.45012820,-79.06543000
-234.28022357,-0.45342450,-78.79074000
-234.18022357,-0.45562200,-78.25661000
-234.08022357,-0.46111580,-78.79074000
-233.98022358,-0.46551090,-77.98193000
-233.88022358,-0.46886830,-75.55548000
-233.78022358,-0.47436210,-75.02136000
-233.68022358,-0.47765840,-73.41899000
-233.58022359,-0.48205350,-75.29605000
-233.48022359,-0.48534980,-75.55548000
-233.38022359,-0.48974480,-76.10487000
-233.28022359,-0.49413990,-75.83017000
-233.18022360,-0.49633740,-76.10487000
-233.08022360,-0.49963370,-75.55548000
-232.98022360,-0.50402880,-76.10487000
-232.88022360,-0.50512750,-76.10487000
-232.78022361,-0.51068250,-77.17311000
-232.68022361,-0.51507750,-77.44781000
-232.58022361,-0.51727500,-77.44781000
-232.48022361,-0.52057140,-76.91368000
-232.38022362,-0.52386770,-77.44781000
-232.28022362,-0.52826270,-77.70724000
-232.18022362,-0.53265780,-77.98193000
-232.08022362,-0.53595410,-76.63899000
-231.98022363,-0.53815160,-76.63899000
-231.88022363,-0.54364540,-76.36430000
-231.78022363,-0.54920040,-75.83017000
-231.68022363,-0.55029910,-74.76193000
-231.58022364,-0.55469420,-74.21255000
-231.48022364,-0.55689170,-73.95312000
-231.38022364,-0.55908920,-70.45842000
-231.28022364,-0.56348430,-63.72848000
-231.18022365,-0.56678060,-62.12611000
-231.08022365,-0.56897810,-62.66023000
-230.98022365,-0.57227440,-61.31730000
-230.88022365,-0.57666950,-62.12611000
-230.78022366,-0.57886700,-61.31730000
-230.68022366,-0.57996580,-60.50848000
-230.58022366,-0.58442190,-60.23379000
-230.48022366,-0.58771820,-60.76791000
-230.38022367,-0.58991580,-59.69967000
-230.28022367,-0.59211330,-61.85142000
-230.18022367,-0.59431080,-61.31730000
-230.08022367,-0.59870590,-62.12611000
-229.98022368,-0.60090340,-63.19435000
-229.88022368,-0.60529850,-61.31730000
-229.78022368,-0.60419970,-61.57673000
-229.68022368,-0.61079230,-62.38554000
-229.58022369,-0.61298980,-62.38554000
-229.48022369,-0.61189110,-62.91967000
-229.38022369,-0.61848370,-62.91967000
-229.28022369,-0.61848370,-63.19435000
-229.18022370,-0.62293980,-62.66023000
-229.08022370,-0.62403860,-62.66023000
-228.98022370,-0.62953240,-63.72848000
-228.88022370,-0.63063110,-63.46905000
-228.78022371,-0.63392750,-64.26260000
-228.68022371,-0.63392750,-64.53729000
-228.58022371,-0.63612500,-63.46905000
-228.48022371,-0.64052010,-62.91967000
-228.38022372,-0.64271760,-61.57673000
-228.28022372,-0.64381640,-58.35673000
-228.18022372,-0.64711270,-57.27322000
-228.08022372,-0.64931020,-57.54792000
-227.98022373,-0.65150770,-58.35673000
-227.88022373,-0.65260650,-57.82261000
-227.78022373,-0.65480410,-55.67085000
-227.68022373,-0.65700160,-55.39616000
-227.58022374,-0.65810040,-54.32792000
-227.48022374,-0.66145770,-55.12147000
-227.38022374,-0.66255650,-54.05323000
-227.28022374,-0.66365520,-52.71029000
-227.18022375,-0.66695150,-50.28385000
-227.08022375,-0.66914900,-50.83323000
-226.98022375,-0.67134660,-48.94091000
-226.88022375,-0.67354410,-48.40678000
-226.78022376,-0.67464290,-46.78915000
-226.68022376,-0.67574170,-46.25504000
-226.58022376,-0.67793920,-45.72091000
-226.48022376,-0.68013670,-48.94091000
-226.38022377,-0.68123550,-47.32328000
-226.28022377,-0.68233420,-47.59797000
-226.18022377,-0.68453180,-47.59797000
-226.08022377,-0.68563060,-47.87266000
-225.98022378,-0.68782810,-45.98034000
-225.88022378,-0.68892690,-45.98034000
-225.78022378,-0.68892690,-43.29446000
-225.68022378,-0.69332190,-43.56916000
-225.58022379,-0.69332190,-43.03503000
-225.48022379,-0.69222320,-42.76034000
-225.38022379,-0.69442070,-42.48565000
-225.28022379,-0.69551940,-41.67684000
-225.18022380,-0.69771700,-41.14272000
-225.08022380,-0.69997560,-42.22622000
-224.98022380,-0.70107440,-41.41741000
-224.88022380,-0.70107440,-40.07447000
-224.78022381,-0.70327190,-39.54035000
-224.68022381,-0.70217310,-34.68746000
-224.58022381,-0.70546940,-33.34452000
-224.48022382,-0.70437060,-33.08509000
-224.38022382,-0.70656820,-32.53571000
-224.28022382,-0.70986450,-30.12453000
-224.18022382,-0.70876570,-27.69808000
-224.08022383,-0.70986450,-26.62984000
-223.98022383,-0.70986450,-26.88927000
-223.88022383,-0.71096320,-25.54633000
-223.78022383,-0.71096320,-25.82102000
-223.68022384,-0.71206200,-25.82102000
-223.58022384,-0.71316080,-24.73751000
-223.48022384,-0.71206200,-24.73751000
-223.38022384,-0.71316080,-24.73751000
-223.28022385,-0.71535830,-23.94396000
-223.18022385,-0.71645710,-24.20339000
-223.08022385,-0.71535830,-23.39458000
-222.98022385,-0.71535830,-23.66927000
-222.88022386,-0.71755580,-23.39458000
-222.78022386,-0.71865460,-23.13515000
-222.68022386,-0.71645710,-23.66927000
-222.58022386,-0.71535830,-22.86045000
-222.48022387,-0.71645710,-22.05164000
-222.38022387,-0.71865460,-21.79221000
-222.28022387,-0.71865460,-21.51752000
-222.18022387,-0.71865460,-20.44927000
-222.08022388,-0.71975340,-19.64046000
-221.98022388,-0.71755580,-19.36577000
-221.88022388,-0.71865460,-19.09107000
-221.78022388,-0.71755580,-18.83164000
-221.68022389,-0.71975340,-18.29752000
-221.58022389,-0.71755580,-18.02283000
-221.48022389,-0.71975340,-17.74814000
-221.38022389,-0.71865460,-17.48871000
-221.28022390,-0.71865460,-17.21401000
-221.18022390,-0.71975340,-16.95458000
-221.08022390,-0.71865460,-16.40520000
-220.98022390,-0.71755580,-16.40520000
-220.88022391,-0.71645710,-15.87108000
-220.78022391,-0.71645710,-15.87108000
-220.68022391,-0.71755580,-16.14577000
-220.58022391,-0.71755580,-16.40520000
-220.48022392,-0.71535830,-15.59639000
-220.38022392,-0.71535830,-15.59639000
-220.28022392,-0.71425960,-15.59639000
-220.18022392,-0.71535830,-15.59639000
-220.08022393,-0.71645710,-15.06226000
-219.98022393,-0.71425960,-15.06226000
-219.88022393,-0.71096320,-15.06226000
-219.78022393,-0.71316080,-14.80283000
-219.68022394,-0.71096320,-14.52814000
-219.58022394,-0.71206200,-14.80283000
-219.48022394,-0.71096320,-14.52814000
-219.38022394,-0.70766690,-14.80283000
-219.28022395,-0.70766690,-13.99402000
-219.18022395,-0.70656820,-13.99402000
-219.08022395,-0.70656820,-13.99402000
-218.98022395,-0.70546940,-13.71933000
-218.88022396,-0.70217310,-13.99402000
-218.78022396,-0.70327190,-13.71933000
-218.68022396,-0.70217310,-13.71933000
-218.58022396,-0.70217310,-13.71933000
-218.48022397,-0.70107440,-13.18520000
-218.38022397,-0.69771700,-12.65108000
-218.28022397,-0.69771700,-12.91051000
-218.18022397,-0.69771700,-13.44463000
-218.08022398,-0.69551940,-12.65108000
-217.98022398,-0.69332190,-13.18520000
-217.88022398,-0.69222320,-12.65108000
-217.78022398,-0.69112440,-12.91051000
-217.68022399,-0.69002560,-12.65108000
-217.58022399,-0.68782810,-12.65108000
-217.48022399,-0.68563060,-12.65108000
-217.38022399,-0.68453180,-13.18520000
-217.28022400,-0.68453180,-12.65108000
-217.18022400,-0.68343310,-12.10170000
-217.08022400,-0.68123550,-11.56757000
-216.98022400,-0.67903790,-12.10170000
-216.88022401,-0.67684040,-11.30814000
-216.78022401,-0.67464290,-12.10170000
-216.68022401,-0.67354410,-12.10170000
-216.58022401,-0.67244540,-11.03345000
-216.48022402,-0.67134660,-11.30814000
-216.38022402,-0.66914900,-11.84227000
-216.28022402,-0.66695150,-11.84227000
-216.18022402,-0.66365520,-11.84227000
-216.08022403,-0.66255650,-11.03345000
-215.98022403,-0.66145770,-11.56757000
-215.88022403,-0.65810040,-11.30814000
-215.78022403,-0.65810040,-10.49933000
-215.68022404,-0.65480410,-10.75876000
-215.58022404,-0.65040900,-11.03345000
-215.48022404,-0.64931020,-11.03345000
-215.38022404,-0.64931020,-10.49933000
-215.28022405,-0.64601390,-11.03345000
-215.18022405,-0.64271760,-10.49933000
-215.08022405,-0.64052010,-10.22464000
-214.98022405,-0.63832250,-9.94994400
-214.88022406,-0.63612500,-10.75876000
-214.78022406,-0.63502620,-9.69051400
-214.68022406,-0.63173000,-10.22464000
-214.58022407,-0.62733490,-10.49933000
-214.48022407,-0.62623610,-9.94994400
-214.38022407,-0.62513730,-10.49933000
-214.28022407,-0.62068120,-10.22464000
-214.18022408,-0.61958250,-10.22464000
-214.08022408,-0.61848370,-9.41582100
-213.98022408,-0.61298980,-10.49933000
-213.88022408,-0.60969350,-9.94994400
-213.78022409,-0.61079230,-9.94994400
-213.68022409,-0.60529850,-9.94994400
-213.58022409,-0.60419970,-10.49933000
-213.48022409,-0.60090340,-9.41582100
-213.38022410,-0.59760710,-10.22464000
-213.28022410,-0.59321210,-9.94994400
-213.18022410,-0.59211330,-9.41582100
-213.08022410,-0.58771820,-9.69051400
-212.98022411,-0.58552070,-9.41582100
-212.88022411,-0.58216330,-9.69051400
-212.78022411,-0.58106460,-8.88169900
-212.68022411,-0.57776830,-8.34757600
-212.58022412,-0.57227440,-8.60700700
-212.48022412,-0.57007690,-8.88169900
-212.38022412,-0.56678060,-8.88169900
-212.28022412,-0.56568180,-8.88169900
-212.18022413,-0.56238560,-8.34757600
-212.08022413,-0.55689170,-8.60700700
-211.98022413,-0.55359540,-8.60700700
-211.88022413,-0.55139790,-7.79819300
-211.78022414,-0.54810150,-8.60700700
-211.68022414,-0.54590400,-8.34757600
-211.58022414,-0.54034910,-8.07288500
-211.48022414,-0.53705290,-8.60700700
-211.38022415,-0.53485530,-8.34757600
-211.28022415,-0.53046020,-7.79819300
-211.18022415,-0.52716400,-8.07288500
-211.08022415,-0.52167010,-8.34757600
-210.98022416,-0.51947260,-8.07288500
-210.88022416,-0.51617630,-7.79819300
-210.78022416,-0.51178120,-7.79819300
-210.68022416,-0.50848490,-8.07288500
-210.58022417,-0.50512750,-7.79819300
-210.48022417,-0.50073250,-7.26407000
-210.38022417,-0.49743620,-7.79819300
-210.28022417,-0.49413990,-7.79819300
-210.18022418,-0.49194240,-7.79819300
-210.08022418,-0.48754730,-7.79819300
-209.98022418,-0.48315220,-7.53876200
-209.88022418,-0.47655960,-7.26407000
-209.78022419,-0.47546090,-7.00463900
-209.68022419,-0.47106580,-7.26407000
-209.58022419,-0.46667070,-7.00463900
-209.48022419,-0.46331340,-7.00463900
-209.38022420,-0.45781960,-7.00463900
-209.28022420,-0.45452330,-7.26407000
-209.18022420,-0.45122690,-7.26407000
-209.08022420,-0.44573310,-6.72994700
-208.98022421,-0.44353560,-6.45525600
-208.88022421,-0.43804170,-6.72994700
-208.78022421,-0.43584420,-6.72994700
-208.68022421,-0.42925160,-6.45525600
-208.58022422,-0.42699300,-6.72994700
-208.48022422,-0.42259800,-6.72994700
-208.38022422,-0.41710410,-7.00463900
-208.28022422,-0.41600540,-6.19582400
-208.18022423,-0.41051150,-7.00463900
-208.08022423,-0.40391890,-6.72994700
-207.98022423,-0.40062260,-6.45525600
-207.88022423,-0.39732630,-6.45525600
-207.78022424,-0.39183250,-6.72994700
-207.68022424,-0.38737640,-6.19582400
-207.58022424,-0.38408010,-6.45525600
-207.48022424,-0.37968500,-6.19582400
-207.38022425,-0.37638870,-6.45525600
-207.28022425,-0.37089490,-6.19582400
-207.18022425,-0.36759860,-5.92113300
-207.08022425,-0.36210470,-5.92113300
-206.98022426,-0.35880850,-5.66170100
-206.88022426,-0.35221580,-5.92113300
-206.78022426,-0.35001830,-5.66170100
-206.68022426,-0.34226590,-5.66170100
-206.58022427,-0.33896960,-6.19582400
-206.48022427,-0.33347580,-5.66170100
-206.38022427,-0.32798190,-5.92113300
-206.28022427,-0.32468560,-5.11231800
-206.18022428,-0.31919180,-5.92113300
-206.08022428,-0.31479670,-5.38701000
-205.98022428,-0.31034060,-4.85288700
-205.88022428,-0.30594550,-5.38701000
-205.78022429,-0.30155050,-5.38701000
-205.68022429,-0.29605660,-5.38701000
-205.58022429,-0.29166160,-5.11231800
-205.48022429,-0.28726650,-5.11231800
-205.38022430,-0.28177270,-4.85288700
-205.28022430,-0.27627890,-4.85288700
-205.18022430,-0.27298250,-5.11231800
-205.08022431,-0.26852640,-5.11231800
-204.98022431,-0.26083510,-5.11231800
-204.88022431,-0.25534120,-4.85288700
-204.78022431,-0.25094620,-5.11231800
-204.68022432,-0.24874860,-4.85288700
-204.58022432,-0.24105720,-5.11231800
-204.48022432,-0.23776100,-4.85288700
-204.38022432,-0.23336590,-4.30350400
-204.28022433,-0.22890980,-4.85288700
-204.18022433,-0.22231720,-4.57819500
-204.08022433,-0.21682330,-4.30350400
-203.98022433,-0.21242830,-4.57819500
-203.88022434,-0.20913200,-4.30350400
-203.78022434,-0.20253940,-4.04407300
-203.68022434,-0.19704550,-4.30350400
-203.58022434,-0.19149070,-4.04407300
-203.48022435,-0.18599680,-4.57819500
-203.38022435,-0.17940420,-4.30350400
-203.28022435,-0.17610790,-4.04407300
-203.18022435,-0.17171280,-4.04407300
-203.08022436,-0.16621900,-4.04407300
-202.98022436,-0.16072520,-4.30350400
-202.88022436,-0.15633010,-3.50995000
-202.78022436,-0.14967650,-3.50995000
-202.68022437,-0.14528140,-3.50995000
-202.58022437,-0.14088630,-3.50995000
-202.48022437,-0.13319500,-4.04407300
-202.38022437,-0.13099740,-2.96056600
-202.28022438,-0.12330610,-4.04407300
-202.18022438,-0.11891100,-4.04407300
-202.08022438,-0.11445490,-3.23525800
-201.98022438,-0.10786230,-2.96056600
-201.88022439,-0.10126970,-3.23525800
-201.78022439,-0.09577585,-3.50995000
-201.68022439,-0.09138078,-3.23525800
-201.58022439,-0.08478818,-3.76938100
-201.48022440,-0.08149188,-3.50995000
-201.38022440,-0.07483824,-2.96056600
-201.28022440,-0.07044317,-2.70113500
-201.18022440,-0.06385057,-3.50995000
-201.08022441,-0.05945550,-2.70113500
-200.98022441,-0.05396166,-2.70113500
-200.88022441,-0.04736906,-3.50995000
-200.78022441,-0.04407276,-3.23525800
-200.68022442,-0.03851788,-3.50995000
-200.58022442,-0.03192528,-2.70113500
-200.48022442,-0.02533268,-3.50995000
-200.38022442,-0.01874008,-2.96056600
-200.28022443,-0.01434501,-2.70113500
-200.18022443,-0.01104871,-2.96056600
-200.08022443,-0.00445611,-2.15175200
-199.98022443,0.00329630,-2.42644400
-199.88022444,0.00879014,-2.70113500
-199.78022444,0.01318520,-2.42644400
-199.68022444,0.01758027,-2.70113500
-199.58022444,0.02307411,-2.15175200
-199.48022445,0.02966671,-2.42644400
-199.38022445,0.03625931,-2.15175200
-199.28022445,0.04071542,-1.89232100
-199.18022445,0.04511049,-2.15175200
-199.08022446,0.05280185,-1.35819800
-198.98022446,0.05719692,-2.15175200
-198.88022446,0.06159199,-1.61762900
-198.78022446,0.07038213,-1.61762900
-198.68022447,0.07587596,-1.35819800
-198.58022447,0.07923330,-1.35819800
-198.48022447,0.08472714,-1.35819800
-198.38022447,0.09351727,-1.35819800
-198.28022448,0.09791234,-1.89232100
