Frequency,Channel A,Channel C
(ms),(V),(mV)

-250.12603078,0.36973510,134.43110000
-250.02603079,0.36424120,130.12760000
-249.92603079,0.35874740,128.25050000
-249.82603079,0.35325360,125.28990000
-249.72603079,0.34659990,123.13820000
-249.62603080,0.34330360,120.17760000
-249.52603080,0.33671100,119.10940000
-249.42603080,0.33011840,121.26110000
-249.32603080,0.32462460,111.03650000
-249.22603081,0.31913070,105.66470000
-249.12603081,0.31583450,102.42950000
-249.02603081,0.30918080,99.74361000
-248.92603081,0.30478570,98.40067000
-248.82603082,0.30039070,95.44012000
-248.72603082,0.29160050,93.56305000
-248.62603082,0.28720550,89.25954000
-248.52603082,0.28171160,87.38249000
-248.42603083,0.27621780,85.49017000
-248.32603083,0.27066290,83.07898000
-248.22603083,0.26407030,81.46135000
-248.12603083,0.26077400,80.92723000
-248.02603084,0.25308260,76.34904000
-247.92603084,0.24649000,76.08960000
-247.82603084,0.24099620,70.97729000
-247.72603084,0.23769990,69.10023000
-247.62603085,0.23104630,65.86497000
-247.52603085,0.22555240,63.17909000
-247.42603085,0.21786110,58.87559000
-247.32603085,0.21346600,58.34147000
-247.22603086,0.20797220,55.10621000
-247.12603086,0.20357710,52.42034000
-247.02603086,0.19588570,50.81797000
-246.92603086,0.19252840,47.04859000
-246.82603087,0.18593580,45.43095000
-246.72603087,0.18044190,43.81333000
-246.62603087,0.17494810,41.66158000
-246.52603087,0.16945430,41.12746000
-246.42603088,0.16286170,39.52509000
-246.32603088,0.15846660,38.16689000
-246.22603088,0.15181300,35.48101000
-246.12603088,0.14631910,33.87864000
-246.02603089,0.13972650,30.36869000
-245.92603089,0.13533150,27.14870000
-245.82603089,0.12873890,25.80576000
-245.72603089,0.12434380,21.77695000
-245.62603090,0.11994870,21.50226000
-245.52603090,0.11329510,19.88463000
-245.42603090,0.10890000,18.28226000
-245.32603090,0.10010990,18.28226000
-245.22603091,0.09461604,16.38994000
-245.12603091,0.09241851,15.32169000
-245.02603091,0.08582591,12.89525000
-244.92603091,0.07697473,11.01819000
-244.82603092,0.07477719,10.48407000
-244.72603092,0.06818459,9.14112900
-244.62603092,0.06159199,8.33231500
-244.52603092,0.05609816,7.24880900
-244.42603093,0.05170309,5.90587200
-244.32603093,0.04620925,4.02881200
-244.22603093,0.03845684,3.21999700
-244.12603093,0.03516054,2.13649100
-244.02603094,0.02966671,1.87706000
-243.92603094,0.02307411,0.00000000
-243.82603094,0.01867904,-0.80881450
-243.72603094,0.01318520,-1.61762900
-243.62603095,0.00659260,-2.96056600
-243.52603095,0.00109877,-3.23525800
-243.42603095,-0.00445611,-3.50995000
-243.32603095,-0.00885118,-4.57819500
-243.22603096,-0.01544378,-5.66170100
-243.12603096,-0.01983885,-6.19582400
-243.02603096,-0.02643145,-7.00463900
-242.92603096,-0.03192528,-7.79819300
-242.82603097,-0.03741912,-8.60700700
-242.72603097,-0.04407276,-9.41582100
-242.62603097,-0.04846783,-10.22464000
-242.52603097,-0.05396166,-11.30814000
-242.42603098,-0.05835673,-12.10170000
-242.32603098,-0.06494933,-12.91051000
-242.22603098,-0.06934440,-14.52814000
-242.12603098,-0.07483824,-14.80283000
-242.02603099,-0.08259065,-16.67989000
-241.92603099,-0.08588695,-17.48871000
-241.82603099,-0.09247955,-19.09107000
-241.72603100,-0.09797338,-20.70870000
-241.62603100,-0.10456600,-21.79221000
-241.52603100,-0.10676350,-22.86045000
-241.42603100,-0.11225740,-24.20339000
-241.32603101,-0.11891100,-25.01221000
-241.22603101,-0.12220730,-26.62984000
-241.12603101,-0.12989870,-28.24747000
-241.02603101,-0.13539250,-29.31571000
-240.92603102,-0.13978760,-30.93334000
-240.82603102,-0.14638020,-32.27628000
-240.72603102,-0.15187400,-34.42803000
-240.62603102,-0.15633010,-34.96215000
-240.52603103,-0.15962640,-36.83921000
-240.42603103,-0.16621900,-38.18215000
-240.32603103,-0.17171280,-40.07447000
-240.22603103,-0.17391040,-40.88329000
-240.12603104,-0.18160180,-43.29446000
-240.02603104,-0.18599680,-44.91210000
-239.92603104,-0.19039190,-45.18679000
-239.82603104,-0.19704550,-47.32328000
-239.72603105,-0.20144060,-48.68148000
-239.62603105,-0.20693440,-49.74972000
-239.52603105,-0.21132950,-51.36735000
-239.42603105,-0.21572460,-52.43560000
-239.32603106,-0.22231720,-54.58735000
-239.22603106,-0.22671220,-54.32792000
-239.12603106,-0.23110730,-55.93028000
-239.02603106,-0.23666220,-56.20498000
-238.92603107,-0.24215600,-57.54792000
-238.82603107,-0.24655110,-58.08204000
-238.72603107,-0.25094620,-59.42497000
-238.62603107,-0.25644000,-60.76791000
-238.52603108,-0.26193380,-63.72848000
-238.42603108,-0.26852640,-65.07141000
-238.32603108,-0.27298250,-66.41435000
-238.22603108,-0.27627890,-68.84080000
-238.12603109,-0.28177270,-69.11549000
-238.02603109,-0.28506900,-70.45842000
-237.92603109,-0.29056280,-70.99255000
-237.82603109,-0.29495790,-70.45842000
-237.72603110,-0.30264930,-71.26724000
-237.62603110,-0.30374800,-72.06079000
-237.52603110,-0.30924180,-72.61018000
-237.42603110,-0.31479670,-73.41899000
-237.32603111,-0.32138930,-74.48724000
-237.22603111,-0.32578440,-74.76193000
-237.12603111,-0.32798190,-75.29605000
-237.02603111,-0.33237700,-76.10487000
-236.92603112,-0.33896960,-77.70724000
-236.82603112,-0.34446340,-79.32487000
-236.72603112,-0.34775970,-79.59956000
-236.62603112,-0.35001830,-79.32487000
-236.52603113,-0.35661090,-80.66780000
-236.42603113,-0.36210470,-81.20192000
-236.32603113,-0.36540100,-72.86961000
-236.22603113,-0.36979610,-73.14429000
-236.12603114,-0.37419120,-74.21255000
-236.02603114,-0.37858620,-75.55548000
-235.92603114,-0.38298130,-75.55548000
-235.82603114,-0.38737640,-77.17311000
-235.72603115,-0.39183250,-76.63899000
-235.62603115,-0.39512880,-76.36430000
-235.52603115,-0.39952390,-77.17311000
-235.42603115,-0.40611650,-76.10487000
-235.32603116,-0.41051150,-75.83017000
-235.22603116,-0.41270910,-76.91368000
-235.12603116,-0.41820290,-77.98193000
-235.02603116,-0.42149920,-78.51604000
-234.92603117,-0.42699300,-78.79074000
-234.82603117,-0.43144910,-77.70724000
-234.72603117,-0.43474540,-79.59956000
-234.62603117,-0.43914050,-80.94249000
-234.52603118,-0.44353560,-81.75130000
-234.42603118,-0.44573310,-82.01074000
-234.32603118,-0.45012820,-83.09424000
-234.22603118,-0.45452330,-83.90305000
-234.12603119,-0.45781960,-84.43718000
-234.02603119,-0.46111580,-84.97131000
-233.92603119,-0.46776950,-87.12305000
-233.82603119,-0.46996700,-86.05481000
-233.72603120,-0.47546090,-86.84837000
-233.62603120,-0.47765840,-88.46599000
-233.52603120,-0.48095470,-88.20656000
-233.42603120,-0.48644850,-87.93187000
-233.32603121,-0.48974480,-87.39775000
-233.22603121,-0.49413990,-87.39775000
-233.12603121,-0.49633740,-84.16249000
-233.02603121,-0.50073250,-83.09424000
-232.92603122,-0.50402880,-83.09424000
-232.82603122,-0.50738610,-83.62836000
-232.72603122,-0.51068250,-83.35368000
-232.62603122,-0.51507750,-85.24599000
-232.52603123,-0.51947260,-86.05481000
-232.42603123,-0.52276890,-86.84837000
-232.32603123,-0.52606520,-87.39775000
-232.22603123,-0.53046020,-87.93187000
-232.12603124,-0.53265780,-88.74068000
-232.02603124,-0.53815160,-87.39775000
-231.92603124,-0.54034910,-88.74068000
-231.82603125,-0.54254670,-88.74068000
-231.72603125,-0.54590400,-88.46599000
-231.62603125,-0.55029910,-88.20656000
-231.52603125,-0.55359540,-87.93187000
-231.42603126,-0.55579290,-88.46599000
-231.32603126,-0.56018800,-85.50542000
-231.22603126,-0.56348430,-85.24599000
-231.12603126,-0.56568180,-82.28543000
-231.02603127,-0.57007690,-83.62836000
-230.92603127,-0.57117570,-84.16249000
-230.82603127,-0.57557080,-84.16249000
-230.72603127,-0.57776830,-84.43718000
-230.62603128,-0.58332310,-85.24599000
-230.52603128,-0.58552070,-84.43718000
-230.42603128,-0.58771820,-83.62836000
-230.32603128,-0.59211330,-79.32487000
-230.22603129,-0.59321210,-78.51604000
-230.12603129,-0.59650840,-79.59956000
-230.02603129,-0.59980460,-82.28543000
-229.92603129,-0.60090340,-83.09424000
-229.82603130,-0.60419970,-83.90305000
-229.72603130,-0.60749600,-84.71188000
-229.62603130,-0.60969350,-82.81956000
-229.52603130,-0.61298980,-82.81956000
-229.42603131,-0.61628620,-82.56012000
-229.32603131,-0.61738490,-77.98193000
-229.22603131,-0.62184100,-80.13368000
-229.12603131,-0.62403860,-77.17311000
-229.02603132,-0.62623610,-77.70724000
-228.92603132,-0.62953240,-81.75130000
-228.82603132,-0.63173000,-77.98193000
-228.72603132,-0.63282870,-77.70724000
-228.62603133,-0.63502620,-75.02136000
-228.52603133,-0.63832250,-68.30667000
-228.42603133,-0.63942130,-71.26724000
-228.32603133,-0.64161880,-64.00317000
-228.22603134,-0.64491520,-61.57673000
-228.12603134,-0.64821140,-58.89085000
-228.02603134,-0.64931020,-57.82261000
-227.92603134,-0.65150770,-55.93028000
-227.82603135,-0.65370530,-52.96972000
-227.72603135,-0.65590280,-52.71029000
-227.62603135,-0.65919910,-52.43560000
-227.52603135,-0.65919910,-51.36735000
-227.42603136,-0.66029790,-48.94091000
-227.32603136,-0.66365520,-47.32328000
-227.22603136,-0.66475400,-45.72091000
-227.12603136,-0.66695150,-44.63740000
-227.02603137,-0.67024780,-44.10328000
-226.92603137,-0.67134660,-42.76034000
-226.82603137,-0.67134660,-43.03503000
-226.72603137,-0.67464290,-41.41741000
-226.62603138,-0.67684040,-40.33390000
-226.52603138,-0.67793920,-36.03040000
-226.42603138,-0.68013670,-32.53571000
-226.32603138,-0.68123550,-25.28690000
-226.22603139,-0.68343310,-24.20339000
-226.12603139,-0.68233420,-23.13515000
-226.02603139,-0.68453180,-22.32633000
-225.92603139,-0.68782810,-21.24283000
-225.82603140,-0.68892690,-21.24283000
-225.72603140,-0.69112440,-20.44927000
-225.62603140,-0.69222320,-19.89989000
-225.52603140,-0.69332190,-18.83164000
-225.42603141,-0.69442070,-18.83164000
-225.32603141,-0.69661820,-18.83164000
-225.22603141,-0.69771700,-18.29752000
-225.12603141,-0.69661820,-17.48871000
-225.02603142,-0.69881580,-17.21401000
-224.92603142,-0.70217310,-17.21401000
-224.82603142,-0.70107440,-17.21401000
-224.72603142,-0.70327190,-17.48871000
-224.62603143,-0.70327190,-15.87108000
-224.52603143,-0.70546940,-16.14577000
-224.42603143,-0.70546940,-16.14577000
-224.32603143,-0.70656820,-16.40520000
-224.22603144,-0.70986450,-15.87108000
-224.12603144,-0.70876570,-15.87108000
-224.02603144,-0.70986450,-15.33695000
-223.92603144,-0.71096320,-15.06226000
-223.82603145,-0.70876570,-15.06226000
-223.72603145,-0.71096320,-15.06226000
-223.62603145,-0.71206200,-14.80283000
-223.52603145,-0.71425960,-14.80283000
-223.42603146,-0.71206200,-14.80283000
-223.32603146,-0.71425960,-15.06226000
-223.22603146,-0.71535830,-14.80283000
-223.12603146,-0.71316080,-14.52814000
-223.02603147,-0.71206200,-14.52814000
-222.92603147,-0.71535830,-14.25345000
-222.82603147,-0.71645710,-13.44463000
-222.72603147,-0.71645710,-13.99402000
-222.62603148,-0.71645710,-13.44463000
-222.52603148,-0.71755580,-13.44463000
-222.42603148,-0.71865460,-13.44463000
-222.32603149,-0.71755580,-13.18520000
-222.22603149,-0.71865460,-13.71933000
-222.12603149,-0.71865460,-13.18520000
-222.02603149,-0.71755580,-13.18520000
-221.92603150,-0.71975340,-12.91051000
-221.82603150,-0.71975340,-12.91051000
-221.72603150,-0.71865460,-13.71933000
-221.62603150,-0.71755580,-12.91051000
-221.52603151,-0.71865460,-12.65108000
-221.42603151,-0.71975340,-12.65108000
-221.32603151,-0.71755580,-12.65108000
-221.22603151,-0.71975340,-12.37639000
-221.12603152,-0.71755580,-12.10170000
-221.02603152,-0.71755580,-11.84227000
-220.92603152,-0.71755580,-12.10170000
-220.82603152,-0.71645710,-12.10170000
-220.72603153,-0.71645710,-11.56757000
-220.62603153,-0.71645710,-11.56757000
-220.52603153,-0.71535830,-12.10170000
-220.42603153,-0.71535830,-12.10170000
-220.32603154,-0.71535830,-12.10170000
-220.22603154,-0.71535830,-12.65108000
-220.12603154,-0.71535830,-11.56757000
-220.02603154,-0.71425960,-11.56757000
-219.92603155,-0.71425960,-11.84227000
-219.82603155,-0.71316080,-11.30814000
-219.72603155,-0.71096320,-11.30814000
-219.62603155,-0.70986450,-12.37639000
-219.52603156,-0.71096320,-11.03345000
-219.42603156,-0.70986450,-11.30814000
-219.32603156,-0.70876570,-11.84227000
-219.22603156,-0.70656820,-11.56757000
-219.12603157,-0.70656820,-11.30814000
-219.02603157,-0.70437060,-10.75876000
-218.92603157,-0.70437060,-11.56757000
-218.82603157,-0.70217310,-11.56757000
-218.72603158,-0.70327190,-12.10170000
-218.62603158,-0.70107440,-10.75876000
-218.52603158,-0.69771700,-11.56757000
-218.42603158,-0.70107440,-11.30814000
-218.32603159,-0.69771700,-11.03345000
-218.22603159,-0.69661820,-11.30814000
-218.12603159,-0.69551940,-11.03345000
-218.02603159,-0.69442070,-10.49933000
-217.92603160,-0.69332190,-10.49933000
-217.82603160,-0.69222320,-10.49933000
-217.72603160,-0.69112440,-11.03345000
-217.62603160,-0.69002560,-11.03345000
-217.52603161,-0.68892690,-10.49933000
-217.42603161,-0.68563060,-10.75876000
-217.32603161,-0.68343310,-10.22464000
-217.22603161,-0.68233420,-10.75876000
-217.12603162,-0.67903790,-10.75876000
-217.02603162,-0.67903790,-9.94994400
-216.92603162,-0.67684040,-10.22464000
-216.82603162,-0.67574170,-10.22464000
-216.72603163,-0.67354410,-9.69051400
-216.62603163,-0.67134660,-10.22464000
-216.52603163,-0.67024780,-10.22464000
-216.42603163,-0.66805030,-9.94994400
-216.32603164,-0.66585280,-10.22464000
-216.22603164,-0.66695150,-9.69051400
-216.12603164,-0.66255650,-9.41582100
-216.02603164,-0.66145770,-8.88169900
-215.92603165,-0.65919910,-9.15639000
-215.82603165,-0.65810040,-9.69051400
-215.72603165,-0.65480410,-8.88169900
-215.62603165,-0.65260650,-9.41582100
-215.52603166,-0.65040900,-9.15639000
-215.42603166,-0.64931020,-8.60700700
-215.32603166,-0.64601390,-9.41582100
-215.22603166,-0.64491520,-9.41582100
-215.12603167,-0.64271760,-8.60700700
-215.02603167,-0.63942130,-8.88169900
-214.92603167,-0.63832250,-8.88169900
-214.82603167,-0.63392750,-9.41582100
-214.72603168,-0.63282870,-9.15639000
-214.62603168,-0.62953240,-9.15639000
-214.52603168,-0.62843360,-9.41582100
-214.42603168,-0.62403860,-8.34757600
-214.32603169,-0.62184100,-8.60700700
-214.22603169,-0.62184100,-8.88169900
-214.12603169,-0.61848370,-8.60700700
-214.02603169,-0.61518740,-8.34757600
-213.92603170,-0.61189110,-8.60700700
-213.82603170,-0.61079230,-8.60700700
-213.72603170,-0.60859480,-8.34757600
-213.62603170,-0.60529850,-8.07288500
-213.52603171,-0.60200220,-8.60700700
-213.42603171,-0.59870590,-8.60700700
-213.32603171,-0.59650840,-8.88169900
-213.22603171,-0.59431080,-8.34757600
-213.12603172,-0.58881700,-8.07288500
-213.02603172,-0.58552070,-8.60700700
-212.92603172,-0.58552070,-8.07288500
-212.82603173,-0.58106460,-7.79819300
-212.72603173,-0.57886700,-7.79819300
-212.62603173,-0.57557080,-8.34757600
-212.52603173,-0.57117570,-7.53876200
-212.42603174,-0.56897810,-7.53876200
-212.32603174,-0.56787940,-8.07288500
-212.22603174,-0.56128670,-7.53876200
-212.12603174,-0.55908920,-8.07288500
-212.02603175,-0.55689170,-7.53876200
-211.92603175,-0.55359540,-7.26407000
-211.82603175,-0.54920040,-7.26407000
-211.72603175,-0.54590400,-8.07288500
-211.62603176,-0.54254670,-7.00463900
-211.52603176,-0.53925040,-7.53876200
-211.42603176,-0.53705290,-7.26407000
-211.32603176,-0.53485530,-7.26407000
-211.22603177,-0.53046020,-6.72994700
-211.12603177,-0.52606520,-7.00463900
-211.02603177,-0.52386770,-7.00463900
-210.92603177,-0.51947260,-7.00463900
-210.82603178,-0.51617630,-6.72994700
-210.72603178,-0.50958370,-7.53876200
-210.62603178,-0.50848490,-7.53876200
-210.52603178,-0.50402880,-6.72994700
-210.42603179,-0.49963370,-6.72994700
-210.32603179,-0.49743620,-7.00463900
-210.22603179,-0.49194240,-6.72994700
-210.12603179,-0.48864610,-7.00463900
-210.02603180,-0.48754730,-6.45525600
-209.92603180,-0.48205350,-6.45525600
-209.82603180,-0.47765840,-6.72994700
-209.72603180,-0.47436210,-6.72994700
-209.62603181,-0.46776950,-7.00463900
-209.52603181,-0.46667070,-6.72994700
-209.42603181,-0.46331340,-6.45525600
-209.32603181,-0.45781960,-5.92113300
-209.22603182,-0.45562200,-6.45525600
-209.12603182,-0.45012820,-7.00463900
-209.02603182,-0.44683190,-5.92113300
-208.92603182,-0.44243680,-6.45525600
-208.82603183,-0.43694300,-6.45525600
-208.72603183,-0.43364670,-6.19582400
-208.62603183,-0.42815290,-5.38701000
-208.52603183,-0.42699300,-6.45525600
-208.42603184,-0.42149920,-6.45525600
-208.32603184,-0.41930170,-5.92113300
-208.22603184,-0.41270910,-5.92113300
-208.12603184,-0.40831400,-6.19582400
-208.02603185,-0.40501770,-6.19582400
-207.92603185,-0.40062260,-5.11231800
-207.82603185,-0.39622760,-5.38701000
-207.72603185,-0.39073370,-4.85288700
-207.62603186,-0.38963500,-5.66170100
-207.52603186,-0.38188250,-5.38701000
-207.42603186,-0.37858620,-5.66170100
-207.32603186,-0.37528990,-5.11231800
-207.22603187,-0.36869730,-5.66170100
-207.12603187,-0.36649980,-5.92113300
-207.02603187,-0.35990720,-5.38701000
-206.92603187,-0.35661090,-5.38701000
-206.82603188,-0.35001830,-4.57819500
-206.72603188,-0.34775970,-5.38701000
-206.62603188,-0.34116710,-5.11231800
-206.52603188,-0.33677210,-5.66170100
-206.42603189,-0.33237700,-5.11231800
-206.32603189,-0.32798190,-5.11231800
-206.22603189,-0.32468560,-4.57819500
-206.12603189,-0.31809300,-4.85288700
-206.02603190,-0.31150040,-5.38701000
-205.92603190,-0.30814310,-5.11231800
-205.82603190,-0.30484680,-5.38701000
-205.72603190,-0.29935290,-4.30350400
-205.62603191,-0.29495790,-4.85288700
-205.52603191,-0.29056280,-4.85288700
-205.42603191,-0.28506900,-4.57819500
-205.32603191,-0.28177270,-4.30350400
-205.22603192,-0.27518010,-4.57819500
-205.12603192,-0.26962520,-4.85288700
-205.02603192,-0.26632890,-4.04407300
-204.92603192,-0.26303260,-4.57819500
-204.82603193,-0.25863750,-4.57819500
-204.72603193,-0.24984740,-4.04407300
-204.62603193,-0.24874860,-4.85288700
-204.52603193,-0.24215600,-4.30350400
-204.42603194,-0.23556340,-4.30350400
-204.32603194,-0.23110730,-4.30350400
-204.22603194,-0.22671220,-4.57819500
-204.12603194,-0.22011960,-4.85288700
-204.02603195,-0.21682330,-4.30350400
-203.92603195,-0.21023070,-4.04407300
-203.82603195,-0.20583570,-3.76938100
-203.72603195,-0.20144060,-4.04407300
-203.62603196,-0.19594680,-4.04407300
-203.52603196,-0.18929310,-3.76938100
-203.42603196,-0.18489800,-4.30350400
-203.32603197,-0.18050300,-4.04407300
-203.22603197,-0.17500920,-4.30350400
-203.12603197,-0.16841660,-3.50995000
-203.02603197,-0.16512020,-4.04407300
-202.92603198,-0.15852760,-3.76938100
-202.82603198,-0.15297280,-3.76938100
-202.72603198,-0.14857770,-4.04407300
-202.62603198,-0.14198510,-2.96056600
-202.52603199,-0.13759000,-3.76938100
-202.42603199,-0.13319500,-2.96056600
-202.32603199,-0.12989870,-3.23525800
-202.22603199,-0.12220730,-3.23525800
-202.12603200,-0.11555370,-3.50995000
-202.02603200,-0.11225740,-3.76938100
-201.92603200,-0.10676350,-3.23525800
-201.82603200,-0.10017090,-2.96056600
-201.72603201,-0.09577585,-3.23525800
-201.62603201,-0.09138078,-3.23525800
-201.52603201,-0.08368941,-2.70113500
-201.42603201,-0.07929435,-3.50995000
-201.32603202,-0.07483824,-3.23525800
-201.22603202,-0.06824563,-2.70113500
-201.12603202,-0.06165303,-3.76938100
-201.02603202,-0.05725797,-3.23525800
-200.92603203,-0.05066536,-3.23525800
-200.82603203,-0.04517153,-3.50995000
-200.72603203,-0.04077646,-3.50995000
-200.62603203,-0.03741912,-2.42644400
-200.52603204,-0.02972775,-3.23525800
-200.42603204,-0.02203638,-2.70113500
-200.32603204,-0.01983885,-2.42644400
-200.22603204,-0.01544378,-3.23525800
-200.12603205,-0.00775241,-2.70113500
-200.02603205,-0.00225858,-2.15175200
-199.92603205,0.00439507,-2.15175200
-199.82603205,0.00988890,-2.70113500
-199.72603206,0.01538274,-2.42644400
-199.62603206,0.02087657,-1.89232100
-199.52603206,0.02307411,-2.42644400
-199.42603206,0.03076547,-2.70113500
-199.32603207,0.03516054,-1.61762900
-199.22603207,0.04071542,-1.35819800
-199.12603207,0.04620925,-2.15175200
-199.02603207,0.05280185,-1.89232100
-198.92603208,0.05829569,-1.61762900
-198.82603208,0.06488829,-1.35819800
-198.72603208,0.07038213,-1.89232100
-198.62603208,0.07587596,-0.80881450
-198.52603209,0.08143084,-1.35819800
-198.42603209,0.08912221,-1.08350600
-198.32603209,0.09351727,-1.89232100
-198.22603209,0.10010990,-1.35819800
