Frequency,Channel A,Channel C
(ms),(V),(mV)

-250.16697586,0.37303140,77.15785000
-250.06697587,0.36643880,75.28078000
-249.96697587,0.35984620,72.04553000
-249.86697587,0.35654990,70.70259000
-249.76697587,0.34995730,70.16847000
-249.66697588,0.34550120,66.39909000
-249.56697588,0.33890860,65.33084000
-249.46697588,0.33341470,65.05615000
-249.36697588,0.32901970,62.64497000
-249.26697589,0.32242700,60.75265000
-249.16697589,0.31803200,58.34147000
-249.06697589,0.31363690,55.65559000
-248.96697589,0.30698330,55.91502000
-248.86697590,0.30148940,54.31266000
-248.76697590,0.29379810,52.69503000
-248.66697590,0.28940300,51.07740000
-248.56697590,0.28610670,49.45977000
-248.46697591,0.27841530,46.77389000
-248.36697591,0.27292150,45.17153000
-248.26697591,0.26626780,45.17153000
-248.16697591,0.26297160,44.36271000
-248.06697592,0.25637890,42.74508000
-247.96697592,0.25088510,41.93627000
-247.86697592,0.24539130,39.52509000
-247.76697592,0.23879870,37.90746000
-247.66697593,0.23440360,36.28983000
-247.56697593,0.22884870,35.48101000
-247.46697593,0.22225610,33.87864000
-247.36697593,0.21566350,33.06983000
-247.26697594,0.21126850,31.45220000
-247.16697594,0.20687340,31.17751000
-247.06697594,0.20028080,30.64339000
-246.96697594,0.19478700,29.30045000
-246.86697595,0.18923210,27.14870000
-246.76697595,0.18373820,27.68282000
-246.66697595,0.17824440,25.27164000
-246.56697595,0.17165180,23.37932000
-246.46697596,0.16615800,21.50226000
-246.36697596,0.16066410,18.81638000
-246.26697596,0.15510930,17.47345000
-246.16697596,0.14961540,15.85582000
-246.06697597,0.14412160,15.58112000
-245.96697597,0.13643020,14.51288000
-245.86697597,0.13203520,13.97876000
-245.76697597,0.12654130,12.89525000
-245.66697598,0.11994870,12.89525000
-245.56697598,0.11439380,11.29288000
-245.46697598,0.11109750,11.55231000
-245.36697598,0.10560370,9.67525300
-245.26697599,0.09681357,8.86643800
-245.16697599,0.09241851,7.52350100
-245.06697599,0.08692467,7.52350100
-244.96697599,0.08143084,5.90587200
-244.86697600,0.07813454,5.64644100
-244.76697600,0.07257966,5.09705700
-244.66697600,0.06488829,4.83762600
-244.56697600,0.06049322,3.75412000
-244.46697601,0.05390062,3.75412000
-244.36697601,0.04730802,2.13649100
-244.26697601,0.04181419,1.87706000
-244.16697601,0.03845684,1.06824600
-244.06697602,0.03076547,0.25943110
-243.96697602,0.02527164,-0.27469170
-243.86697602,0.02087657,-0.80881450
-243.76697602,0.01538274,-1.61762900
-243.66697603,0.00988890,-1.89232100
-243.56697603,0.00329630,-2.96056600
-243.46697603,-0.00445611,-3.50995000
-243.36697603,-0.00775241,-4.57819500
-243.26697604,-0.01434501,-5.66170100
-243.16697604,-0.01654255,-5.38701000
-243.06697604,-0.02423391,-6.45525600
-242.96697604,-0.02972775,-7.26407000
-242.86697605,-0.03412282,-8.60700700
-242.76697605,-0.04077646,-9.41582100
-242.66697605,-0.04627030,-9.69051400
-242.56697605,-0.05286290,-10.49933000
-242.46697606,-0.05615920,-11.84227000
-242.36697606,-0.06055427,-13.18520000
-242.26697606,-0.06934440,-13.71933000
-242.16697606,-0.07154194,-15.87108000
-242.06697607,-0.07819558,-16.67989000
-241.96697607,-0.08368941,-16.95458000
-241.86697607,-0.08808448,-18.02283000
-241.76697607,-0.09357832,-19.64046000
-241.66697608,-0.10017090,-20.70870000
-241.56697608,-0.10456600,-21.24283000
-241.46697608,-0.11115860,-23.13515000
-241.36697608,-0.11555370,-24.73751000
-241.26697609,-0.12110850,-26.09571000
-241.16697609,-0.12660240,-26.88927000
-241.06697609,-0.13319500,-27.69808000
-240.96697610,-0.13759000,-29.31571000
-240.86697610,-0.14308390,-30.65865000
-240.76697610,-0.14857770,-32.27628000
-240.66697610,-0.15077520,-33.08509000
-240.56697611,-0.15852760,-33.61922000
-240.46697611,-0.16402150,-35.77097000
-240.36697611,-0.16951530,-37.64803000
-240.26697611,-0.17281160,-38.73153000
-240.16697612,-0.18050300,-40.33390000
-240.06697612,-0.18270050,-40.88329000
-239.96697612,-0.18929310,-41.67684000
-239.86697612,-0.19258940,-43.56916000
-239.76697613,-0.19924310,-44.10328000
-239.66697613,-0.20583570,-45.44622000
-239.56697613,-0.20803320,-46.52972000
-239.46697613,-0.21462580,-47.87266000
-239.36697614,-0.21902090,-50.02441000
-239.26697614,-0.22451470,-51.09266000
-239.16697614,-0.22890980,-52.17617000
-239.06697614,-0.23336590,-53.77853000
-238.96697615,-0.24215600,-55.12147000
-238.86697615,-0.24545230,-56.73910000
-238.76697615,-0.24874860,-58.08204000
-238.66697615,-0.25424240,-58.89085000
-238.56697616,-0.25973630,-61.04260000
-238.46697616,-0.26523010,-62.38554000
-238.36697616,-0.27072400,-63.19435000
-238.26697616,-0.27518010,-66.15492000
-238.16697617,-0.27847640,-66.68904000
-238.06697617,-0.28506900,-67.77254000
-237.96697617,-0.28726650,-68.56610000
-237.86697617,-0.29385910,-70.71785000
-237.76697618,-0.29825420,-72.06079000
-237.66697618,-0.30155050,-72.33549000
-237.56697618,-0.30814310,-72.86961000
-237.46697618,-0.31259920,-74.76193000
-237.36697619,-0.31919180,-75.83017000
-237.26697619,-0.32248810,-76.91368000
-237.16697619,-0.32578440,-77.70724000
-237.06697619,-0.33127820,-78.51604000
-236.96697620,-0.33677210,-80.13368000
-236.86697620,-0.34116710,-80.66780000
-236.76697620,-0.34446340,-82.81956000
-236.66697620,-0.34885850,-83.62836000
-236.56697621,-0.35441340,-84.71188000
-236.46697621,-0.35990720,-85.78011000
-236.36697621,-0.36210470,-87.39775000
-236.26697621,-0.36759860,-87.65718000
-236.16697622,-0.37089490,-89.00011000
-236.06697622,-0.37528990,-90.35831000
-235.96697622,-0.38188250,-92.49480000
-235.86697622,-0.38627760,-92.76950000
-235.76697623,-0.39073370,-94.11243000
-235.66697623,-0.39403000,-96.53888000
-235.56697623,-0.39842510,-97.07300000
-235.46697623,-0.40391890,-98.41593000
-235.36697624,-0.40721520,-99.75887000
-235.26697624,-0.41161030,-100.56770000
-235.16697624,-0.41710410,-101.37650000
-235.06697624,-0.42040040,-102.44470000
-234.96697625,-0.42369670,-103.78770000
-234.86697625,-0.42925160,-104.33710000
-234.76697625,-0.43254790,-104.06240000
-234.66697625,-0.43694300,-103.78770000
-234.56697626,-0.43914050,-103.25360000
-234.46697626,-0.44463430,-103.25360000
-234.36697626,-0.44683190,-102.99410000
-234.26697626,-0.45452330,-104.06240000
-234.16697627,-0.45562200,-103.52830000
-234.06697627,-0.46111580,-104.87120000
-233.96697627,-0.46551090,-104.33710000
-233.86697627,-0.46886830,-104.59650000
-233.76697628,-0.47326330,-107.29760000
-233.66697628,-0.47655960,-107.29760000
-233.56697628,-0.47985590,-107.83180000
-233.46697628,-0.48315220,-109.17470000
-233.36697629,-0.48644850,-109.70880000
-233.26697629,-0.49084360,-111.05180000
-233.16697629,-0.49633740,-111.58590000
-233.06697629,-0.49853500,-111.58590000
-232.96697630,-0.50183130,-112.94410000
-232.86697630,-0.50628740,-113.20350000
-232.76697630,-0.50848490,-114.01230000
-232.66697630,-0.51507750,-114.01230000
-232.56697631,-0.51727500,-113.73760000
-232.46697631,-0.52057140,-115.63000000
-232.36697631,-0.52496640,-115.08060000
-232.26697631,-0.52936150,-115.88940000
-232.16697632,-0.53155900,-116.69820000
-232.06697632,-0.53485530,-116.69820000
-231.96697632,-0.53705290,-117.78170000
-231.86697632,-0.54144790,-117.23230000
-231.76697633,-0.54590400,-118.04110000
-231.66697633,-0.54810150,-118.31580000
-231.56697633,-0.54920040,-118.84990000
-231.46697634,-0.55469420,-119.65880000
-231.36697634,-0.55799050,-118.84990000
-231.26697634,-0.56128670,-119.12460000
-231.16697634,-0.56458310,-118.59050000
-231.06697635,-0.56678060,-119.93350000
-230.96697635,-0.57227440,-119.65880000
-230.86697635,-0.57337320,-120.19290000
-230.76697635,-0.57666950,-119.65880000
-230.66697636,-0.58106460,-120.72700000
-230.56697636,-0.58332310,-122.08520000
-230.46697636,-0.58661940,-122.08520000
-230.36697636,-0.58771820,-122.87880000
-230.26697637,-0.59101450,-122.87880000
-230.16697637,-0.59540960,-123.42810000
-230.06697637,-0.59650840,-123.42810000
-229.96697637,-0.60090340,-123.96230000
-229.86697638,-0.60310100,-124.23700000
-229.76697638,-0.60529850,-123.96230000
-229.66697638,-0.60969350,-125.83930000
-229.56697638,-0.60859480,-124.77110000
-229.46697639,-0.61408870,-124.49640000
-229.36697639,-0.61738490,-123.96230000
-229.26697639,-0.61958250,-125.30520000
-229.16697639,-0.62068120,-126.11400000
-229.06697640,-0.62403860,-126.11400000
-228.96697640,-0.62843360,-124.23700000
-228.86697640,-0.62953240,-122.34460000
-228.76697640,-0.63173000,-121.53580000
-228.66697641,-0.63502620,-119.65880000
-228.56697641,-0.63502620,-116.97290000
-228.46697641,-0.63832250,-104.06240000
-228.36697641,-0.64161880,-102.18530000
-228.26697642,-0.64381640,-101.10180000
-228.16697642,-0.64601390,-98.69063000
-228.06697642,-0.64821140,-97.07300000
-227.96697642,-0.64931020,-92.23537000
-227.86697643,-0.65260650,-88.74068000
-227.76697643,-0.65260650,-79.06543000
-227.66697643,-0.65700160,-77.17311000
-227.56697643,-0.65810040,-69.64961000
-227.46697644,-0.66145770,-29.31571000
-227.36697644,-0.66255650,-29.31571000
-227.26697644,-0.66255650,-28.78159000
-227.16697644,-0.66585280,-28.50690000
-227.06697645,-0.66914900,-27.97277000
-226.96697645,-0.67024780,-28.24747000
-226.86697645,-0.67134660,-27.16396000
-226.76697645,-0.67354410,-26.35514000
-226.66697646,-0.67464290,-24.73751000
-226.56697646,-0.67684040,-21.79221000
-226.46697646,-0.67903790,-21.24283000
-226.36697646,-0.68123550,-21.51752000
-226.26697647,-0.68233420,-20.70870000
-226.16697647,-0.68343310,-20.70870000
-226.06697647,-0.68563060,-20.44927000
-225.96697647,-0.68672930,-18.83164000
-225.86697648,-0.69112440,-18.55695000
-225.76697648,-0.69112440,-18.29752000
-225.66697648,-0.69222320,-17.48871000
-225.56697648,-0.69112440,-17.74814000
-225.46697649,-0.69332190,-17.21401000
-225.36697649,-0.69771700,-17.48871000
-225.26697649,-0.69442070,-16.95458000
-225.16697649,-0.69881580,-16.14577000
-225.06697650,-0.69997560,-15.87108000
-224.96697650,-0.69997560,-16.14577000
-224.86697650,-0.70217310,-16.67989000
-224.76697650,-0.70327190,-16.40520000
-224.66697651,-0.70217310,-15.87108000
-224.56697651,-0.70437060,-15.33695000
-224.46697651,-0.70437060,-15.06226000
-224.36697651,-0.70656820,-33.89390000
-224.26697652,-0.70327190,-34.96215000
-224.16697652,-0.70876570,-20.17458000
-224.06697652,-0.71096320,-19.64046000
-223.96697652,-0.70876570,-19.64046000
-223.86697653,-0.70986450,-19.89989000
-223.76697653,-0.71206200,-20.44927000
-223.66697653,-0.71206200,-15.59639000
-223.56697653,-0.71206200,-17.48871000
-223.46697654,-0.71316080,-16.14577000
-223.36697654,-0.71316080,-16.14577000
-223.26697654,-0.71535830,-15.87108000
-223.16697654,-0.71645710,-15.33695000
-223.06697655,-0.71645710,-16.67989000
-222.96697655,-0.71425960,-14.52814000
-222.86697655,-0.71645710,-14.25345000
-222.76697655,-0.71645710,-14.52814000
-222.66697656,-0.71535830,-13.99402000
-222.56697656,-0.71535830,-14.80283000
-222.46697656,-0.71535830,-13.99402000
-222.36697656,-0.71865460,-14.25345000
-222.26697657,-0.71865460,-14.52814000
-222.16697657,-0.71755580,-14.80283000
-222.06697657,-0.71865460,-14.25345000
-221.96697658,-0.71865460,-13.99402000
-221.86697658,-0.71755580,-13.99402000
-221.76697658,-0.71755580,-13.44463000
-221.66697658,-0.71755580,-13.18520000
-221.56697659,-0.71755580,-13.44463000
-221.46697659,-0.71755580,-12.91051000
-221.36697659,-0.71755580,-13.18520000
-221.26697659,-0.71755580,-13.44463000
-221.16697660,-0.71865460,-12.65108000
-221.06697660,-0.71865460,-12.91051000
-220.96697660,-0.71645710,-12.65108000
-220.86697660,-0.71645710,-12.37639000
-220.76697661,-0.71645710,-12.65108000
-220.66697661,-0.71865460,-12.65108000
-220.56697661,-0.71535830,-12.65108000
-220.46697661,-0.71206200,-13.18520000
-220.36697662,-0.71425960,-12.65108000
-220.26697662,-0.71425960,-12.65108000
-220.16697662,-0.71425960,-12.91051000
-220.06697662,-0.71425960,-12.37639000
-219.96697663,-0.71206200,-11.84227000
-219.86697663,-0.71206200,-11.84227000
-219.76697663,-0.71206200,-12.37639000
-219.66697663,-0.71206200,-12.91051000
-219.56697664,-0.71096320,-12.37639000
-219.46697664,-0.70876570,-12.37639000
-219.36697664,-0.70766690,-12.10170000
-219.26697664,-0.70766690,-12.10170000
-219.16697665,-0.70766690,-12.10170000
-219.06697665,-0.70656820,-12.10170000
-218.96697665,-0.70327190,-11.84227000
-218.86697665,-0.70546940,-12.10170000
-218.76697666,-0.70437060,-12.37639000
-218.66697666,-0.69997560,-11.56757000
-218.56697666,-0.70107440,-11.84227000
-218.46697666,-0.70107440,-11.84227000
-218.36697667,-0.69661820,-11.56757000
-218.26697667,-0.69771700,-11.84227000
-218.16697667,-0.69551940,-11.84227000
-218.06697667,-0.69332190,-11.84227000
-217.96697668,-0.69332190,-11.30814000
-217.86697668,-0.69222320,-11.03345000
-217.76697668,-0.69112440,-11.03345000
-217.66697668,-0.68892690,-11.56757000
-217.56697669,-0.68672930,-11.30814000
-217.46697669,-0.68453180,-11.03345000
-217.36697669,-0.68892690,-11.03345000
-217.26697669,-0.68343310,-11.30814000
-217.16697670,-0.68233420,-11.56757000
-217.06697670,-0.68013670,-11.03345000
-216.96697670,-0.67903790,-10.75876000
-216.86697670,-0.67574170,-11.03345000
-216.76697671,-0.67574170,-10.49933000
-216.66697671,-0.67354410,-10.75876000
-216.56697671,-0.67134660,-10.22464000
-216.46697671,-0.66914900,-10.75876000
-216.36697672,-0.66805030,-10.49933000
-216.26697672,-0.66695150,-10.49933000
-216.16697672,-0.66585280,-10.49933000
-216.06697672,-0.66029790,-9.94994400
-215.96697673,-0.65810040,-10.22464000
-215.86697673,-0.65810040,-10.75876000
-215.76697673,-0.65700160,-10.49933000
-215.66697673,-0.65480410,-9.69051400
-215.56697674,-0.65590280,-10.22464000
-215.46697674,-0.64821140,-10.22464000
-215.36697674,-0.64711270,-10.22464000
-215.26697674,-0.64491520,-10.49933000
-215.16697675,-0.64381640,-9.41582100
-215.06697675,-0.64052010,-9.94994400
-214.96697675,-0.63942130,-9.94994400
-214.86697675,-0.63502620,-10.75876000
-214.76697676,-0.63392750,-9.94994400
-214.66697676,-0.63173000,-9.94994400
-214.56697676,-0.62953240,-9.69051400
-214.46697676,-0.62623610,-9.69051400
-214.36697677,-0.62403860,-9.69051400
-214.26697677,-0.62293980,-9.15639000
-214.16697677,-0.61848370,-9.94994400
-214.06697677,-0.61628620,-9.41582100
-213.96697678,-0.61298980,-9.41582100
-213.86697678,-0.60859480,-9.41582100
-213.76697678,-0.60859480,-9.94994400
-213.66697678,-0.60529850,-9.94994400
-213.56697679,-0.60419970,-9.69051400
-213.46697679,-0.59980460,-9.15639000
-213.36697679,-0.59650840,-8.88169900
-213.26697679,-0.59431080,-9.15639000
-213.16697680,-0.59211330,-8.60700700
-213.06697680,-0.58881700,-8.60700700
-212.96697680,-0.58661940,-8.88169900
-212.86697680,-0.58442190,-8.88169900
-212.76697681,-0.57996580,-9.41582100
-212.66697681,-0.57666950,-9.15639000
-212.56697681,-0.57337320,-9.41582100
-212.46697681,-0.57007690,-9.15639000
-212.36697682,-0.56678060,-8.88169900
-212.26697682,-0.56348430,-8.34757600
-212.16697682,-0.56128670,-8.88169900
-212.06697683,-0.55799050,-9.15639000
-211.96697683,-0.55469420,-8.88169900
-211.86697683,-0.55249660,-9.15639000
-211.76697683,-0.54590400,-9.15639000
-211.66697684,-0.54590400,-9.15639000
-211.56697684,-0.54034910,-8.07288500
-211.46697684,-0.53815160,-8.60700700
-211.36697684,-0.53265780,-8.34757600
-211.26697685,-0.53155900,-8.88169900
-211.16697685,-0.52826270,-8.60700700
-211.06697685,-0.52276890,-8.88169900
-210.96697685,-0.52057140,-8.60700700
-210.86697686,-0.51617630,-8.34757600
-210.76697686,-0.51178120,-8.34757600
-210.66697686,-0.50738610,-8.34757600
-210.56697686,-0.50628740,-8.34757600
-210.46697687,-0.50183130,-8.34757600
-210.36697687,-0.49853500,-7.26407000
-210.26697687,-0.49413990,-7.26407000
-210.16697687,-0.49084360,-8.07288500
-210.06697688,-0.48644850,-7.53876200
-209.96697688,-0.48315220,-7.26407000
-209.86697688,-0.47765840,-7.79819300
-209.76697688,-0.47326330,-7.00463900
-209.66697689,-0.47106580,-7.53876200
-209.56697689,-0.46776950,-7.53876200
-209.46697689,-0.46111580,-7.26407000
-209.36697689,-0.46001710,-7.00463900
-209.26697690,-0.45562200,-7.00463900
-209.16697690,-0.45232570,-7.26407000
-209.06697690,-0.44902940,-7.26407000
-208.96697690,-0.44353560,-7.26407000
-208.86697691,-0.43804170,-6.72994700
-208.76697691,-0.43584420,-6.72994700
-208.66697691,-0.43254790,-7.26407000
-208.56697691,-0.42589430,-6.72994700
-208.46697692,-0.42149920,-6.45525600
-208.36697692,-0.41930170,-6.45525600
-208.26697692,-0.41490660,-7.00463900
-208.16697692,-0.40941280,-6.19582400
-208.06697693,-0.40611650,-7.26407000
-207.96697693,-0.40172140,-5.92113300
-207.86697693,-0.39622760,-6.45525600
-207.76697693,-0.39403000,-6.45525600
-207.66697694,-0.38963500,-6.45525600
-207.56697694,-0.38408010,-6.72994700
-207.46697694,-0.37858620,-6.19582400
-207.36697694,-0.37638870,-5.66170100
-207.26697695,-0.37199370,-6.45525600
-207.16697695,-0.36759860,-6.45525600
-207.06697695,-0.36100600,-6.72994700
-206.96697695,-0.35661090,-6.19582400
-206.86697696,-0.35331460,-6.19582400
-206.76697696,-0.34775970,-5.92113300
-206.66697696,-0.34556220,-5.92113300
-206.56697696,-0.33677210,-6.19582400
-206.46697697,-0.33237700,-5.92113300
-206.36697697,-0.33017950,-5.38701000
-206.26697697,-0.32688320,-5.66170100
-206.16697697,-0.32138930,-5.38701000
-206.06697698,-0.31479670,-5.66170100
-205.96697698,-0.31034060,-5.38701000
-205.86697698,-0.30484680,-5.66170100
-205.76697698,-0.30155050,-5.92113300
-205.66697699,-0.29605660,-5.11231800
-205.56697699,-0.29276030,-5.66170100
-205.46697699,-0.28836530,-5.66170100
-205.36697699,-0.28177270,-5.38701000
-205.26697700,-0.27957510,-5.11231800
-205.16697700,-0.27408130,-5.11231800
-205.06697700,-0.26742770,-5.38701000
-204.96697700,-0.26193380,-4.57819500
-204.86697701,-0.25973630,-4.57819500
-204.76697701,-0.25314370,-4.85288700
-204.66697701,-0.24655110,-4.30350400
-204.56697701,-0.24545230,-4.85288700
-204.46697702,-0.23995850,-4.04407300
-204.36697702,-0.23446460,-4.57819500
-204.26697702,-0.22890980,-4.57819500
-204.16697702,-0.22341590,-5.38701000
-204.06697703,-0.21792210,-4.85288700
-203.96697703,-0.21352700,-4.57819500
-203.86697703,-0.20693440,-5.38701000
-203.76697703,-0.20363810,-4.57819500
-203.66697704,-0.19814430,-4.30350400
-203.56697704,-0.19258940,-4.30350400
-203.46697704,-0.18709560,-4.30350400
-203.36697704,-0.18050300,-4.57819500
-203.26697705,-0.17500920,-4.04407300
-203.16697705,-0.17171280,-4.30350400
-203.06697705,-0.16841660,-4.04407300
-202.96697705,-0.16072520,-4.57819500
-202.86697706,-0.15517030,-4.30350400
-202.76697706,-0.15187400,-4.30350400
-202.66697706,-0.14638020,-3.76938100
-202.56697707,-0.14198510,-4.04407300
-202.46697707,-0.13539250,-3.76938100
-202.36697707,-0.12879990,-3.76938100
-202.26697707,-0.12440480,-3.23525800
-202.16697708,-0.11891100,-3.76938100
-202.06697708,-0.11445490,-3.23525800
-201.96697708,-0.10786230,-4.04407300
-201.86697708,-0.10126970,-3.76938100
-201.76697709,-0.09797338,-3.50995000
-201.66697709,-0.09247955,-3.50995000
-201.56697709,-0.08808448,-3.76938100
-201.46697709,-0.08259065,-3.50995000
-201.36697710,-0.07593700,-3.23525800
-201.26697710,-0.07044317,-3.50995000
-201.16697710,-0.06494933,-3.23525800
-201.06697710,-0.05945550,-3.23525800
-200.96697711,-0.05506043,-2.96056600
-200.86697711,-0.04956660,-3.50995000
-200.76697711,-0.04297400,-2.96056600
-200.66697711,-0.03851788,-2.70113500
-200.56697712,-0.03192528,-2.15175200
-200.46697712,-0.02643145,-3.23525800
-200.36697712,-0.02093761,-2.70113500
-200.26697712,-0.01544378,-2.15175200
-200.16697713,-0.00994995,-2.70113500
-200.06697713,-0.00445611,-3.23525800
-199.96697713,0.00219753,-2.42644400
-199.86697713,0.00549384,-2.42644400
-199.76697714,0.01318520,-3.23525800
-199.66697714,0.01758027,-2.96056600
-199.56697714,0.02197534,-2.15175200
-199.46697714,0.02746917,-2.42644400
-199.36697715,0.03296301,-1.89232100
-199.26697715,0.04071542,-2.15175200
-199.16697715,0.04620925,-2.70113500
-199.06697715,0.05060432,-1.89232100
-198.96697716,0.05609816,-1.61762900
-198.86697716,0.06159199,-2.15175200
-198.76697716,0.06708582,-1.89232100
-198.66697716,0.07367843,-1.08350600
-198.56697717,0.07697473,-1.89232100
-198.46697717,0.08252960,-2.15175200
