Frequency,Channel A,Channel B,Channel C
(ms),(V),(V),(V)

-2.50150455,0.01428397,0.04712489,0.07843975
-2.50050455,0.00659260,0.03839580,0.06861189
-2.49950455,0.00109877,0.02850690,0.05988280
-2.49850455,-0.00555488,0.01971676,0.05115370
-2.49750455,-0.01324625,0.00872909,0.04132584
-2.49650455,-0.01764131,0.00000000,0.03046026
-2.49550455,-0.02533268,-0.00988890,0.02063240
-2.49450455,-0.02972775,-0.01867904,0.01190331
-2.49350455,-0.03632035,-0.02856794,0.00427298
-2.49250455,-0.04297400,-0.03625931,-0.00775241
-2.49150455,-0.04956660,-0.04608717,-0.01648150
-2.49050455,-0.05506043,-0.05597607,-0.02411183
-2.48950455,-0.06055427,-0.06586497,-0.03387865
-2.48850455,-0.06824563,-0.07465511,-0.04590404
-2.48750455,-0.07264070,-0.08454401,-0.05353437
-2.48650455,-0.07929435,-0.09437187,-0.06336223
-2.48550455,-0.08588695,-0.10426080,-0.07319009
-2.48450455,-0.09138078,-0.11305090,-0.08295690
-2.48350455,-0.09687462,-0.12074230,-0.09168600
-2.48250455,-0.10346720,-0.13057010,-0.10041510
-2.48150455,-0.11115860,-0.14045900,-0.10914420
-2.48050455,-0.11555370,-0.15034790,-0.11897200
-2.47950455,-0.12330610,-0.16023680,-0.12770110
-2.47850455,-0.12879990,-0.16902700,-0.13862780
-2.47750455,-0.13429370,-0.17775610,-0.14839460
-2.47650455,-0.14088630,-0.18544740,-0.15602490
-2.47550455,-0.14638020,-0.19423760,-0.16585280
-2.47450455,-0.15187400,-0.20412650,-0.17677940
-2.47350455,-0.15852760,-0.21401540,-0.18440970
-2.47250455,-0.16512020,-0.22274450,-0.19423760
-2.47150455,-0.17171280,-0.23263340,-0.20186790
-2.47050455,-0.17830540,-0.23922600,-0.21059700
-2.46950455,-0.18270050,-0.24911490,-0.21932610
-2.46850455,-0.18819440,-0.25790500,-0.22805520
-2.46750455,-0.19594680,-0.26663410,-0.23782200
-2.46650455,-0.20144060,-0.27432550,-0.24551340
-2.46550455,-0.20803320,-0.28421440,-0.25528020
-2.46450455,-0.21352700,-0.29520200,-0.26510800
-2.46350455,-0.21902090,-0.30179460,-0.27273840
-2.46250455,-0.22561350,-0.31162250,-0.28146750
-2.46150455,-0.23220610,-0.32041260,-0.29129530
-2.46050455,-0.23885970,-0.32920280,-0.30002440
-2.45950455,-0.24325480,-0.33909170,-0.30875350
-2.45850455,-0.24874860,-0.34672200,-0.31858140
-2.45750455,-0.25314370,-0.35551210,-0.32724940
-2.45650455,-0.26193380,-0.36540100,-0.33494080
-2.45550455,-0.26742770,-0.37199370,-0.34470760
-2.45450455,-0.27182270,-0.38188250,-0.35343670
-2.45350455,-0.27737760,-0.38951290,-0.36106700
-2.45250455,-0.28397020,-0.39720430,-0.36979610
-2.45150455,-0.29166160,-0.40599440,-0.37742640
-2.45050455,-0.29715540,-0.41368570,-0.38615550
-2.44950455,-0.30155050,-0.42027830,-0.39488460
-2.44850455,-0.30814310,-0.43016730,-0.40251490
-2.44750455,-0.31589550,-0.43779760,-0.41124400
-2.44650455,-0.31919180,-0.44658770,-0.41777560
-2.44550455,-0.32688320,-0.45318030,-0.42650470
-2.44450455,-0.33127820,-0.46197040,-0.43309730
-2.44350455,-0.33896960,-0.46966180,-0.44176530
-2.44250455,-0.34446340,-0.47729220,-0.45049440
-2.44150455,-0.35001830,-0.48498350,-0.45708700
-2.44050455,-0.35551210,-0.49267490,-0.46575510
-2.43950455,-0.35990720,-0.49816870,-0.47344650
-2.43850455,-0.36649980,-0.50695880,-0.47997800
-2.43750455,-0.37199370,-0.51245270,-0.48870710
-2.43650455,-0.37858620,-0.52008300,-0.49413990
-2.43550455,-0.38298130,-0.52887310,-0.50177030
-2.43450455,-0.39073370,-0.53436700,-0.50940050
-2.43350455,-0.39512880,-0.54205830,-0.51483330
-2.43250455,-0.40062260,-0.54755220,-0.52252470
-2.43150455,-0.40611650,-0.55524360,-0.53015510
-2.43050455,-0.41161030,-0.56073740,-0.53778540
-2.42950455,-0.41930170,-0.56836770,-0.54541570
-2.42850455,-0.42259800,-0.57496030,-0.55084850
-2.42750455,-0.42925160,-0.58265170,-0.55847880
-2.42650455,-0.43474540,-0.59034310,-0.56391160
-2.42550455,-0.43914050,-0.59583690,-0.57160290
-2.42450455,-0.44573310,-0.60352830,-0.57813450
-2.42350455,-0.45122690,-0.61005980,-0.58576490
-2.42250455,-0.45672080,-0.61335610,-0.59009890
-2.42150455,-0.46001710,-0.62214620,-0.59772920
-2.42050455,-0.46551090,-0.62764010,-0.60322300
-2.41950455,-0.47216460,-0.63423270,-0.60975460
-2.41850455,-0.47655960,-0.63862780,-0.61628620
-2.41750455,-0.48425100,-0.64631920,-0.62281770
-2.41650455,-0.48974480,-0.65175190,-0.62831160
-2.41550455,-0.49523870,-0.65834450,-0.63484310
-2.41450455,-0.50073250,-0.66383830,-0.64027590
-2.41350455,-0.50512750,-0.67043100,-0.64467100
-2.41250455,-0.50958370,-0.67482600,-0.65333900
-2.41150455,-0.51617630,-0.68031980,-0.65663530
-2.41050455,-0.52057140,-0.68471490,-0.66316690
-2.40950455,-0.52716400,-0.68911000,-0.66756190
-2.40850455,-0.53046020,-0.69234530,-0.67189600
-2.40750455,-0.53595410,-0.69893780,-0.67629100
-2.40650455,-0.54254670,-0.70333290,-0.68172380
-2.40550455,-0.54810150,-0.70662920,-0.68605790
-2.40450455,-0.55249660,-0.71212300,-0.68935420
-2.40350455,-0.55689170,-0.71761690,-0.69374920
-2.40250455,-0.56348430,-0.72091320,-0.69808330
-2.40150455,-0.56787940,-0.72530820,-0.70351610
-2.40050455,-0.57227440,-0.72860460,-0.70791110
-2.39950455,-0.57996580,-0.73190090,-0.71114640
-2.39850455,-0.58442190,-0.73733370,-0.71664020
-2.39750455,-0.58881700,-0.74282750,-0.72097420
-2.39650455,-0.59321210,-0.74722250,-0.72646810
-2.39550455,-0.59760710,-0.75161760,-0.73190090
-2.39450455,-0.60310100,-0.75930900,-0.73623490
-2.39350455,-0.60749600,-0.76150650,-0.74172870
-2.39250455,-0.61298980,-0.76590160,-0.74716150
-2.39150455,-0.61848370,-0.77139540,-0.75149550
-2.39050455,-0.62293980,-0.77688930,-0.75589060
-2.38950455,-0.62733490,-0.78122330,-0.76242210
-2.38850455,-0.63392750,-0.78671710,-0.76571850
-2.38750455,-0.63832250,-0.79111220,-0.77005250
-2.38650455,-0.64271760,-0.79440850,-0.77548530
-2.38550455,-0.64711270,-0.79880360,-0.77878160
-2.38450455,-0.65150770,-0.80209980,-0.78207790
-2.38350455,-0.65700160,-0.80649500,-0.78641190
-2.38250455,-0.66029790,-0.80869250,-0.79080690
-2.38150455,-0.66475400,-0.81198880,-0.79514100
-2.38050455,-0.67244540,-0.81418630,-0.79733850
-2.37950455,-0.67354410,-0.81858130,-0.79953600
-2.37850455,-0.67903790,-0.82181660,-0.80167260
-2.37750455,-0.68233420,-0.82511290,-0.80606760
-2.37650455,-0.68782810,-0.82731040,-0.81259920
-2.37550455,-0.69222320,-0.83060680,-0.81150040
-2.37450455,-0.69442070,-0.83390310,-0.81803200
-2.37350455,-0.69997560,-0.83829810,-0.82022950
-2.37250455,-0.70437060,-0.84269320,-0.82566230
-2.37150455,-0.70876570,-0.84708830,-0.82895860
-2.37050455,-0.71316080,-0.84928580,-0.83329260
-2.36950455,-0.71865460,-0.85477960,-0.83878650
-2.36850455,-0.72195090,-0.85807590,-0.84202170
-2.36750455,-0.72744480,-0.86027350,-0.84421930
-2.36650455,-0.73074100,-0.86356970,-0.84641680
-2.36550455,-0.73403730,-0.86247100,-0.84641680
-2.36450455,-0.73849340,-0.86027350,-0.84531800
-2.36350455,-0.74178980,-0.85917470,-0.84421930
-2.36250455,-0.74728360,-0.85697720,-0.84312050
-2.36150455,-0.75167860,-0.85917470,-0.84421930
-2.36050455,-0.75497500,-0.86137220,-0.84641680
-2.35950455,-0.76046880,-0.86356970,-0.84861430
-2.35850455,-0.76266630,-0.86570630,-0.85184960
-2.35750455,-0.76706140,-0.86900260,-0.85624460
-2.35650455,-0.77145650,-0.87449640,-0.86057870
-2.35550455,-0.77475270,-0.87559520,-0.86497370
-2.35450455,-0.77695030,-0.88108900,-0.86820900
-2.35350455,-0.78250520,-0.88548400,-0.87364180
-2.35250455,-0.78580150,-0.88987910,-0.87693810
-2.35150455,-0.79129530,-0.89427420,-0.88133320
-2.35050455,-0.79239410,-0.89976800,-0.88566720
-2.34950455,-0.79678920,-0.90416310,-0.89000120
-2.34850455,-0.80008540,-0.90745940,-0.89219870
-2.34750455,-0.80338170,-0.91179340,-0.89659380
-2.34650455,-0.80777680,-0.91508970,-0.90092780
-2.34550455,-0.80997440,-0.91948480,-0.90636060
-2.34450455,-0.81436940,-0.92278110,-0.91075570
-2.34350455,-0.81662800,-0.92607740,-0.91508970
-2.34250455,-0.81992430,-0.92827490,-0.91838600
-2.34150455,-0.82541810,-0.93376870,-0.92381880
-2.34050455,-0.82541810,-0.93706510,-0.92821390
-2.33950455,-0.83091200,-0.94365760,-0.93144910
-2.33850455,-0.83310950,-0.94585520,-0.93694300
-2.33750455,-0.83970210,-0.95128800,-0.94017820
-2.33650455,-0.84080090,-0.95678180,-0.94780860
-2.33550455,-0.84189960,-0.96117690,-0.95110490
-2.33450455,-0.84739350,-0.96776950,-0.95543890
-2.33350455,-0.85068980,-0.97216460,-0.96093270
-2.33250455,-0.85178850,-0.97655960,-0.96636550
-2.33150455,-0.85624460,-0.98205350,-0.97179830
-2.33050455,-0.85954090,-0.98644850,-0.97399580
-2.32950455,-0.86283730,-0.99084360,-0.98052740
-2.32850455,-0.86613360,-0.99407890,-0.98602120
-2.32750455,-0.86833110,-0.99847390,-0.98925650
-2.32650455,-0.87272610,-1.00286900,-0.99475030
-2.32550455,-0.87272610,-1.00726400,-0.99798560
-2.32450455,-0.87712120,-1.01165900,-1.00347900
-2.32350455,-0.87822000,-1.01495500,-1.00781300
-2.32250455,-0.88261500,-1.01935100,-1.01111000
-2.32150455,-0.88371380,-1.02484400,-1.01434500
-2.32050455,-0.88810890,-1.02814100,-1.01874000
-2.31950455,-0.88920770,-1.03253600,-1.02527200
-2.31850455,-0.89140520,-1.03693100,-1.02960600
-2.31750455,-0.89586130,-1.04016600,-1.03400100
-2.31650455,-0.89696010,-1.04346200,-1.03619800
-2.31550455,-0.90245390,-1.04675900,-1.04053200
-2.31450455,-0.90355270,-1.05115400,-1.04382900
-2.31350455,-0.90465140,-1.05335100,-1.04706400
-2.31250455,-0.90794770,-1.05664800,-1.05359500
-2.31150455,-0.91014530,-1.05994400,-1.05579300
-2.31050455,-0.91124400,-1.06214100,-1.05799000
-2.30950455,-0.91563910,-1.06433900,-1.06018800
-2.30850455,-0.91563910,-1.06763500,-1.06232500
-2.30750455,-0.91893540,-1.06873400,-1.06452200
-2.30650455,-0.91893540,-1.07203000,-1.06672000
-2.30550455,-0.92442920,-1.07532700,-1.06995500
-2.30450455,-0.92552800,-1.07642500,-1.07325100
-2.30350455,-0.92882430,-1.07862300,-1.07654700
-2.30250455,-0.92992310,-1.08075900,-1.07868400
-2.30150455,-0.92992310,-1.08185800,-1.08088100
-2.30050455,-0.93437920,-1.08515400,-1.08417800
-2.29950455,-0.93437920,-1.08735200,-1.08521500
-2.29850455,-0.93767550,-1.09064800,-1.08741300
-2.29750455,-0.93877420,-1.09174700,-1.09180800
-2.29650455,-0.94097180,-1.09614200,-1.09180800
-2.29550455,-0.94316930,-1.09724100,-1.09504300
-2.29450455,-0.94536690,-1.09943800,-1.09834000
-2.29350455,-0.94646560,-1.09943800,-1.10053700
-2.29250455,-0.94756440,-1.10163600,-1.10053700
-2.29150455,-0.94976190,-1.10273500,-1.10157500
-2.29050455,-0.95086070,-1.10493200,-1.10157500
-2.28950455,-0.95195940,-1.10603100,-1.10487100
-2.28850455,-0.95415700,-1.10603100,-1.10706900
-2.28750455,-0.95525570,-1.10822900,-1.10706900
-2.28650455,-0.95635450,-1.10932700,-1.11030400
-2.28550455,-0.95855210,-1.11262400,-1.11140300
-2.28450455,-0.95965080,-1.11372200,-1.11360000
-2.28350455,-0.96074960,-1.11592000,-1.11689700
-2.28250455,-0.96184840,-1.11811700,-1.12013200
-2.28150455,-0.96404590,-1.12141400,-1.12123100
-2.28050455,-0.96184840,-1.12251200,-1.12342800
-2.27950455,-0.96624340,-1.12355000,-1.12452700
-2.27850455,-0.96844090,-1.12464900,-1.12776200
-2.27750455,-0.96734220,-1.12684700,-1.12886100
-2.27650455,-0.96953970,-1.12904400,-1.12996000
-2.27550455,-0.96844090,-1.12684700,-1.12996000
-2.27450455,-0.97289710,-1.12904400,-1.13105800
-2.27350455,-0.97063850,-1.13014300,-1.13325600
-2.27250455,-0.97399580,-1.13234000,-1.13429400
-2.27150455,-0.97399580,-1.13234000,-1.13539200
-2.27050455,-0.97399580,-1.13234000,-1.13649100
-2.26950455,-0.97509460,-1.13343900,-1.13759000
-2.26850455,-0.97509460,-1.13453800,-1.13868900
-2.26750455,-0.97729210,-1.13673500,-1.13868900
-2.26650455,-0.97619340,-1.13673500,-1.13978800
-2.26550455,-0.97729210,-1.13673500,-1.14198500
-2.26450455,-0.97948970,-1.13673500,-1.14198500
-2.26350455,-0.97948970,-1.13783400,-1.14198500
-2.26250455,-0.98058840,-1.13783400,-1.14302300
-2.26150455,-0.97948970,-1.13783400,-1.14412200
-2.26050455,-0.98058840,-1.13673500,-1.14198500
-2.25950455,-0.98058840,-1.13783400,-1.14302300
-2.25850455,-0.98058840,-1.13673500,-1.14302300
-2.25750455,-0.98058840,-1.13783400,-1.14302300
-2.25650455,-0.98168720,-1.13783400,-1.14412200
-2.25550455,-0.98278590,-1.13673500,-1.14302300
-2.25450455,-0.98278590,-1.13673500,-1.14302300
-2.25350455,-0.98388480,-1.13673500,-1.14412200
-2.25250455,-0.98278590,-1.13783400,-1.14412200
-2.25150455,-0.98388480,-1.13783400,-1.14522000
-2.25050455,-0.98388480,-1.13783400,-1.14522000
-2.24950455,-0.98278590,-1.13893300,-1.14631900
-2.24850455,-0.98278590,-1.13783400,-1.14741800
-2.24750455,-0.98388480,-1.14003200,-1.14741800
-2.24650455,-0.98388480,-1.13893300,-1.14741800
-2.24550455,-0.98278590,-1.13563700,-1.14631900
-2.24450455,-0.98498350,-1.13673500,-1.14631900
-2.24350455,-0.98168720,-1.13673500,-1.14412200
-2.24250455,-0.98278590,-1.13673500,-1.14522000
-2.24150455,-0.98168720,-1.13343900,-1.14412200
-2.24050455,-0.98058840,-1.13234000,-1.14302300
-2.23950455,-0.98278590,-1.13343900,-1.14198500
-2.23850455,-0.98278590,-1.13014300,-1.13978800
-2.23750455,-0.98058840,-1.12794500,-1.13868900
-2.23650455,-0.97948970,-1.12464900,-1.13759000
-2.23550455,-0.98058840,-1.12251200,-1.13429400
-2.23450455,-0.98058840,-1.12141400,-1.13325600
-2.23350455,-0.97839090,-1.12141400,-1.13105800
-2.23250455,-0.97729210,-1.12031500,-1.13105800
-2.23150455,-0.97729210,-1.11701900,-1.12776200
-2.23050455,-0.97619340,-1.11592000,-1.12776200
-2.22950455,-0.97619340,-1.11372200,-1.12452700
-2.22850455,-0.97399580,-1.11152500,-1.12452700
-2.22750455,-0.97509460,-1.11042600,-1.12232900
-2.22650455,-0.97289710,-1.10932700,-1.12013200
-2.22550455,-0.97063850,-1.10713000,-1.11689700
-2.22450455,-0.97063850,-1.10383300,-1.11793400
-2.22350455,-0.97063850,-1.10163600,-1.11469900
-2.22250455,-0.96844090,-1.10053700,-1.11469900
-2.22150455,-0.96844090,-1.10053700,-1.11250200
-2.22050455,-0.96624340,-1.09724100,-1.11030400
-2.21950455,-0.96624340,-1.09834000,-1.10926600
-2.21850455,-0.96514460,-1.09614200,-1.10816800
-2.21750455,-0.96074960,-1.09394500,-1.10706900
-2.21650455,-0.96404590,-1.09284600,-1.10597000
-2.21550455,-0.96074960,-1.08955000,-1.10597000
-2.21450455,-0.95965080,-1.08845100,-1.10267400
-2.21350455,-0.95635450,-1.08515400,-1.10053700
-2.21250455,-0.95855210,-1.08405600,-1.09943800
-2.21150455,-0.95525570,-1.08185800,-1.09614200
-2.21050455,-0.95415700,-1.08075900,-1.09504300
-2.20950455,-0.95305820,-1.07642500,-1.09180800
-2.20850455,-0.95305820,-1.07312900,-1.08961100
-2.20750455,-0.95086070,-1.07203000,-1.08521500
-2.20650455,-0.94756440,-1.06873400,-1.08417800
-2.20550455,-0.94646560,-1.06433900,-1.08088100
-2.20450455,-0.94426810,-1.06104300,-1.07868400
-2.20350455,-0.94207050,-1.05774600,-1.07435000
-2.20250455,-0.93987300,-1.05664800,-1.07215200
-2.20150455,-0.93877420,-1.05445000,-1.06995500
-2.20050455,-0.93877420,-1.05005500,-1.06672000
-2.19950455,-0.93547800,-1.04895600,-1.06452200
-2.19850455,-0.93328040,-1.04456100,-1.06232500
-2.19750455,-0.93212060,-1.04016600,-1.05908900
-2.19650455,-0.92882430,-1.03906700,-1.05689200
-2.19550455,-0.92772560,-1.03583200,-1.05469400
-2.19450455,-0.92662680,-1.03143700,-1.05145900
-2.19350455,-0.92552800,-1.02923900,-1.04706400
-2.19250455,-0.92113290,-1.02814100,-1.04486600
-2.19150455,-0.91893540,-1.02374600,-1.04163100
-2.19050455,-0.91563910,-1.02154800,-1.03833500
-2.18950455,-0.91454040,-1.01715300,-1.03619800
-2.18850455,-0.91124400,-1.01495500,-1.03290200
-2.18750455,-0.91014530,-1.01056000,-1.02960600
-2.18650455,-0.90684900,-1.00506700,-1.02527200
-2.18550455,-0.90465140,-1.00177000,-1.01983900
-2.18450455,-0.90245390,-0.99737510,-1.01874000
-2.18350455,-0.89915760,-0.99517760,-1.01544400
-2.18250455,-0.89805880,-0.98974480,-1.01111000
-2.18150455,-0.89696010,-0.98644850,-1.00781300
-2.18050455,-0.89250400,-0.98315220,-1.00451700
-2.17950455,-0.89030640,-0.97875710,-1.00238100
-2.17850455,-0.88810890,-0.97546090,-0.99688680
-2.17750455,-0.88591130,-0.97216460,-0.99255280
-2.17650455,-0.88261500,-0.96776950,-0.98815770
-2.17550455,-0.87822000,-0.96337440,-0.98492250
-2.17450455,-0.87712120,-0.95897940,-0.98162620
-2.17350455,-0.87272610,-0.95568310,-0.97619340
-2.17250455,-0.87162740,-0.95238670,-0.97179830
-2.17150455,-0.86833110,-0.94805270,-0.96966180
-2.17050455,-0.86503480,-0.94255890,-0.96416800
-2.16950455,-0.86393600,-0.93706510,-0.95983400
-2.16850455,-0.85954090,-0.93267000,-0.95543890
-2.16750455,-0.85624460,-0.92607740,-0.95000610
-2.16650455,-0.85398610,-0.92278110,-0.94567200
-2.16550455,-0.84959100,-0.91728720,-0.94127700
-2.16450455,-0.84739350,-0.91069470,-0.93694300
-2.16350455,-0.84299840,-0.90745940,-0.93035040
-2.16250455,-0.83970210,-0.90086680,-0.92491760
-2.16150455,-0.83530700,-0.89757050,-0.91948480
-2.16050455,-0.83420830,-0.89097790,-0.91405200
-2.15950455,-0.83091200,-0.88768160,-0.91075570
-2.15850455,-0.82651690,-0.88218770,-0.90532290
-2.15750455,-0.82322060,-0.87559520,-0.90092780
-2.15650455,-0.81882550,-0.87229880,-0.89659380
-2.15550455,-0.81992430,-0.86570630,-0.89219870
-2.15450455,-0.81436940,-0.86356970,-0.88786470
-2.15350455,-0.81107310,-0.86027350,-0.88456840
-2.15250455,-0.80777680,-0.85477960,-0.87913560
-2.15150455,-0.80338170,-0.85148330,-0.87474050
-2.15050455,-0.80008540,-0.84379200,-0.86930780
-2.14950455,-0.79788790,-0.83829810,-0.86497370
-2.14850455,-0.79349290,-0.83390310,-0.85728240
-2.14750455,-0.78909780,-0.82731040,-0.85184960
-2.14650455,-0.78360400,-0.82077890,-0.84751560
-2.14550455,-0.78250520,-0.81418630,-0.84092300
-2.14450455,-0.77695030,-0.80869250,-0.83439140
-2.14350455,-0.77365400,-0.80100110,-0.82895860
-2.14250455,-0.76816020,-0.79660600,-0.82022950
-2.14150455,-0.76596260,-0.79001340,-0.81693320
-2.14050455,-0.76156760,-0.78451960,-0.81040170
-2.13950455,-0.75937000,-0.78012450,-0.80387010
-2.13850455,-0.75387620,-0.77249420,-0.79953600
-2.13750455,-0.75057990,-0.76700040,-0.79404220
-2.13650455,-0.74618480,-0.76150650,-0.78751070
-2.13550455,-0.74288850,-0.75601270,-0.78317670
-2.13450455,-0.73959220,-0.75051890,-0.77658400
-2.13350455,-0.73623490,-0.74392620,-0.77225000
-2.13250455,-0.73074100,-0.73843240,-0.76681720
-2.13150455,-0.72634600,-0.73190090,-0.75912580
-2.13050455,-0.72195090,-0.72640710,-0.75479190
-2.12950455,-0.71645710,-0.71871570,-0.74826030
-2.12850455,-0.71316080,-0.71541940,-0.74282750
-2.12750455,-0.70876570,-0.70992550,-0.73623490
-2.12650455,-0.70546940,-0.70223410,-0.73190090
-2.12550455,-0.70107440,-0.69783910,-0.72536930
-2.12450455,-0.69551940,-0.69130750,-0.71773900
-2.12350455,-0.69112440,-0.68471490,-0.71334390
-2.12250455,-0.68782810,-0.68031980,-0.70791110
-2.12150455,-0.68343310,-0.67262850,-0.70351610
-2.12050455,-0.67903790,-0.66823340,-0.69698450
-2.11950455,-0.67464290,-0.66164080,-0.69155170
-2.11850455,-0.66805030,-0.65724580,-0.68605790
-2.11750455,-0.66585280,-0.65065310,-0.67952630
-2.11650455,-0.66145770,-0.64522030,-0.67299470
-2.11550455,-0.65480410,-0.63862780,-0.66969840
-2.11450455,-0.64931020,-0.63313390,-0.66206810
-2.11350455,-0.64711270,-0.62434380,-0.65663530
-2.11250455,-0.64271760,-0.61994870,-0.65010370
-2.11150455,-0.63612500,-0.61445490,-0.64570870
-2.11050455,-0.63173000,-0.60786230,-0.63807840
-2.10950455,-0.62513730,-0.60133070,-0.63154680
-2.10850455,-0.62184100,-0.59473810,-0.62391650
-2.10750455,-0.61848370,-0.59034310,-0.62062020
-2.10650455,-0.61408870,-0.58155290,-0.61518740
-2.10550455,-0.60749600,-0.57386150,-0.60755710
-2.10450455,-0.60310100,-0.56946650,-0.60102550
-2.10350455,-0.59760710,-0.56287390,-0.59449390
-2.10250455,-0.59211330,-0.55524360,-0.58796240
-2.10150455,-0.58771820,-0.54974970,-0.58136980
-2.10050455,-0.58106460,-0.54425590,-0.57483820
-2.09950455,-0.57886700,-0.53656450,-0.56830670
-2.09850455,-0.57447200,-0.52887310,-0.56067630
-2.09750455,-0.56678060,-0.52228060,-0.55628130
-2.09650455,-0.56348430,-0.51684770,-0.54865100
-2.09550455,-0.55799050,-0.50915640,-0.54102060
-2.09450455,-0.55469420,-0.50476130,-0.53558780
-2.09350455,-0.54810150,-0.50036630,-0.53015510
-2.09250455,-0.54254670,-0.49157610,-0.52356240
-2.09150455,-0.53595410,-0.48718100,-0.51703090
-2.09050455,-0.53155900,-0.48058840,-0.51049930
-2.08950455,-0.52606520,-0.47515570,-0.50616530
-2.08850455,-0.52057140,-0.46636550,-0.49957270
-2.08750455,-0.51617630,-0.46197040,-0.49194240
