Frequency,Channel A,Channel B,Channel C
(ms),(V),(V),(V)

-2.50150455,0.01208644,0.05371749,0.08387254
-2.50050455,0.00549384,0.04279087,0.07514345
-2.49950455,0.00000000,0.03400073,0.06421682
-2.49850455,-0.00665364,0.02301306,0.05335124
-2.49750455,-0.01214748,0.01202539,0.04462215
-2.49650455,-0.01983885,0.00213649,0.03369552
-2.49550455,-0.02533268,-0.00659260,0.02386766
-2.49450455,-0.03192528,-0.01758027,0.01410084
-2.49350455,-0.03632035,-0.02856794,0.00317422
-2.49250455,-0.04297400,-0.03845684,-0.00555488
-2.49150455,-0.04956660,-0.04718594,-0.01538274
-2.49050455,-0.05615920,-0.05927237,-0.02624832
-2.48950455,-0.06275180,-0.06916127,-0.03717495
-2.48850455,-0.06824563,-0.08014894,-0.04700281
-2.48750455,-0.07373947,-0.08887804,-0.05792943
-2.48650455,-0.08149188,-0.09986570,-0.06659748
-2.48550455,-0.08588695,-0.10865580,-0.07642534
-2.48450455,-0.09357832,-0.11744600,-0.08845074
-2.48350455,-0.09797338,-0.12733490,-0.09608106
-2.48250455,-0.10456600,-0.13716270,-0.10700770
-2.48150455,-0.11005980,-0.14815040,-0.11677450
-2.48050455,-0.11555370,-0.15913810,-0.12770110
-2.47950455,-0.12110850,-0.16682940,-0.13752900
-2.47850455,-0.12989870,-0.17775610,-0.14839460
-2.47750455,-0.13539250,-0.18874370,-0.15712370
-2.47650455,-0.14198510,-0.19973140,-0.16805030
-2.47550455,-0.14857770,-0.20852150,-0.17677940
-2.47450455,-0.15517030,-0.21725060,-0.18770600
-2.47350455,-0.15962640,-0.22823830,-0.19747280
-2.47250455,-0.16512020,-0.23592970,-0.20730070
-2.47150455,-0.17061410,-0.24581860,-0.21602980
-2.47050455,-0.17610790,-0.25680630,-0.22585760
-2.46950455,-0.18379930,-0.26553540,-0.23678430
-2.46850455,-0.19039190,-0.27542420,-0.24655110
-2.46750455,-0.19594680,-0.28421440,-0.25528020
-2.46650455,-0.20253940,-0.29410330,-0.26510800
-2.46550455,-0.20803320,-0.30393110,-0.27493590
-2.46450455,-0.21352700,-0.31272130,-0.28256620
-2.46350455,-0.21902090,-0.32261020,-0.29349290
-2.46250455,-0.22561350,-0.33249910,-0.30325970
-2.46150455,-0.23110730,-0.34128920,-0.31198880
-2.46050455,-0.23995850,-0.35001830,-0.32291540
-2.45950455,-0.24435360,-0.36100600,-0.33054570
-2.45850455,-0.24984740,-0.36869730,-0.33927480
-2.45750455,-0.25644000,-0.37968500,-0.34910270
-2.45650455,-0.26193380,-0.38737640,-0.35893050
-2.45550455,-0.26742770,-0.39610550,-0.36765960
-2.45450455,-0.27408130,-0.40709310,-0.37742640
-2.45350455,-0.27957510,-0.41588330,-0.38615550
-2.45250455,-0.28506900,-0.42357470,-0.39488460
-2.45150455,-0.29166160,-0.43450130,-0.40581130
-2.45050455,-0.29605660,-0.44219260,-0.41454040
-2.44950455,-0.30264930,-0.44988400,-0.42326950
-2.44850455,-0.30814310,-0.45867410,-0.43199850
-2.44750455,-0.31589550,-0.46966180,-0.44176530
-2.44650455,-0.32138930,-0.47729220,-0.45159320
-2.44550455,-0.32798190,-0.48608230,-0.45922350
-2.44450455,-0.33237700,-0.49597120,-0.46795260
-2.44350455,-0.33787080,-0.50366250,-0.47778050
-2.44250455,-0.34336470,-0.51135390,-0.48650960
-2.44150455,-0.34885850,-0.52118180,-0.49523870
-2.44050455,-0.35441340,-0.52887310,-0.50286900
-2.43950455,-0.36210470,-0.53876200,-0.51159810
-2.43850455,-0.36759860,-0.54755220,-0.52142600
-2.43750455,-0.37309240,-0.55414480,-0.52905630
-2.43650455,-0.37748750,-0.56287390,-0.53778540
-2.43550455,-0.38408010,-0.57056520,-0.54651450
-2.43450455,-0.38963500,-0.57825660,-0.55194720
-2.43350455,-0.39512880,-0.58814550,-0.56067630
-2.43250455,-0.40062260,-0.59363940,-0.56830670
-2.43150455,-0.40721520,-0.60242950,-0.57593700
-2.43050455,-0.41051150,-0.60896100,-0.58466610
-2.42950455,-0.41930170,-0.61555360,-0.59119770
-2.42850455,-0.42369670,-0.62434380,-0.59663050
-2.42750455,-0.43035040,-0.62983760,-0.60322300
-2.42650455,-0.43474540,-0.63203510,-0.60975460
-2.42550455,-0.43914050,-0.63752900,-0.61518740
-2.42450455,-0.44573310,-0.64412160,-0.61848370
-2.42350455,-0.45122690,-0.64955440,-0.62281770
-2.42250455,-0.45672080,-0.65394940,-0.62934930
-2.42150455,-0.46331340,-0.65724580,-0.63374440
-2.42050455,-0.46776950,-0.66273960,-0.63807840
-2.41950455,-0.47326330,-0.66713460,-0.64467100
-2.41850455,-0.47765840,-0.67152970,-0.64790620
-2.41750455,-0.48315220,-0.67702350,-0.65333900
-2.41650455,-0.48974480,-0.68251740,-0.65883280
-2.41550455,-0.49413990,-0.68471490,-0.66206810
-2.41450455,-0.50073250,-0.69130750,-0.66866070
-2.41350455,-0.50628740,-0.69564150,-0.67299470
-2.41250455,-0.51068250,-0.70223410,-0.67738980
-2.41150455,-0.51727500,-0.70772800,-0.68502010
-2.41050455,-0.52057140,-0.71212300,-0.68935420
-2.40950455,-0.52716400,-0.71871570,-0.69478700
-2.40850455,-0.53046020,-0.72201190,-0.69918200
-2.40750455,-0.53705290,-0.72860460,-0.70571360
-2.40650455,-0.54364540,-0.73190090,-0.71010860
-2.40550455,-0.54810150,-0.73843240,-0.71444270
-2.40450455,-0.55359540,-0.74282750,-0.72097420
-2.40350455,-0.55799050,-0.74722250,-0.72646810
-2.40250455,-0.56348430,-0.75161760,-0.72860460
-2.40150455,-0.56678060,-0.75601270,-0.73409840
-2.40050455,-0.57227440,-0.76040770,-0.73733370
-2.39950455,-0.57776830,-0.76260530,-0.74172870
-2.39850455,-0.58332310,-0.76700040,-0.74606280
-2.39750455,-0.58991580,-0.76809910,-0.74716150
-2.39650455,-0.59540960,-0.76919790,-0.74935900
-2.39550455,-0.59980460,-0.77249420,-0.75045780
-2.39450455,-0.60310100,-0.77469170,-0.75479190
-2.39350455,-0.60969350,-0.77579050,-0.75589060
-2.39250455,-0.61518740,-0.77902570,-0.75808810
-2.39150455,-0.61848370,-0.78122330,-0.76022460
-2.39050455,-0.62403860,-0.78232200,-0.76132340
-2.38950455,-0.62843360,-0.78451960,-0.76571850
-2.38850455,-0.63282870,-0.78671710,-0.76785490
-2.38750455,-0.63832250,-0.78891470,-0.77005250
-2.38650455,-0.64381640,-0.79221090,-0.77225000
-2.38550455,-0.64711270,-0.79440850,-0.77768280
-2.38450455,-0.65260650,-0.79770480,-0.77988030
-2.38350455,-0.65480410,-0.80100110,-0.78207790
-2.38250455,-0.66145770,-0.80319860,-0.78641190
-2.38150455,-0.66585280,-0.80539610,-0.78751070
-2.38050455,-0.66914900,-0.80979120,-0.79080690
-2.37950455,-0.67354410,-0.81198880,-0.79404220
-2.37850455,-0.67793920,-0.81638380,-0.79733850
-2.37750455,-0.68343310,-0.81968010,-0.79953600
-2.37650455,-0.68782810,-0.82401410,-0.80496880
-2.37550455,-0.69222320,-0.82731040,-0.80930290
-2.37450455,-0.69551940,-0.83170550,-0.81369790
-2.37350455,-0.70217310,-0.83610060,-0.81693320
-2.37250455,-0.70546940,-0.83939690,-0.82242700
-2.37150455,-0.71096320,-0.84379200,-0.82566230
-2.37050455,-0.71316080,-0.84708830,-0.83115610
-2.36950455,-0.71865460,-0.85148330,-0.83439140
-2.36850455,-0.72195090,-0.85477960,-0.83988520
-2.36750455,-0.72744480,-0.85917470,-0.84312050
-2.36650455,-0.73074100,-0.86247100,-0.84751560
-2.36550455,-0.73623490,-0.86680500,-0.85075080
-2.36450455,-0.74069100,-0.87010130,-0.85514590
-2.36350455,-0.74398730,-0.87779270,-0.85947990
-2.36250455,-0.74838230,-0.87999020,-0.86387500
-2.36150455,-0.75277750,-0.88438530,-0.86930780
-2.36050455,-0.75607370,-0.88987910,-0.87260410
-2.35950455,-0.75937000,-0.89537300,-0.87913560
-2.35850455,-0.76376510,-0.89976800,-0.88456840
-2.35750455,-0.76706140,-0.90416310,-0.88896350
-2.35650455,-0.76925890,-0.91069470,-0.89329750
-2.35550455,-0.77475270,-0.91508970,-0.89873030
-2.35450455,-0.77695030,-0.91838600,-0.90422420
-2.35350455,-0.78140640,-0.92387990,-0.90855810
-2.35250455,-0.78690020,-0.92827490,-0.91295330
-2.35150455,-0.79129530,-0.93267000,-0.91728720
-2.35050455,-0.79459160,-0.93706510,-0.92491760
-2.34950455,-0.79678920,-0.94146010,-0.92931260
-2.34850455,-0.79898670,-0.94695400,-0.93254790
-2.34750455,-0.80228300,-0.95025030,-0.93694300
-2.34650455,-0.80667810,-0.95568310,-0.94127700
-2.34550455,-0.81107310,-0.95897940,-0.94670980
-2.34450455,-0.81327060,-0.96337440,-0.95110490
-2.34350455,-0.81662800,-0.96886830,-0.95763640
-2.34250455,-0.82102300,-0.97106580,-0.96093270
-2.34150455,-0.82651690,-0.97765840,-0.96636550
-2.34050455,-0.82981320,-0.98425100,-0.97076060
-2.33950455,-0.83091200,-0.98754730,-0.97509460
-2.33850455,-0.83420830,-0.99084360,-0.98052740
-2.33750455,-0.83750460,-0.99304120,-0.98272490
-2.33650455,-0.84080090,-0.99737510,-0.98602120
-2.33550455,-0.84629470,-1.00067200,-0.98925650
-2.33450455,-0.84629470,-1.00506700,-0.99255280
-2.33350455,-0.85068980,-1.00616500,-0.99578800
-2.33250455,-0.85178850,-1.00836300,-0.99908440
-2.33150455,-0.85624460,-1.01165900,-1.00128200
-2.33050455,-0.86063970,-1.01495500,-1.00671500
-2.32950455,-0.86173850,-1.01935100,-1.01111000
-2.32850455,-0.86723230,-1.02264700,-1.01434500
-2.32750455,-0.86723230,-1.02594300,-1.01874000
-2.32650455,-0.87162740,-1.03143700,-1.02087700
-2.32550455,-0.87492370,-1.03583200,-1.02637000
-2.32450455,-0.87822000,-1.03796900,-1.03070400
-2.32350455,-0.87822000,-1.04346200,-1.03510000
-2.32250455,-0.88261500,-1.04785700,-1.03943300
-2.32150455,-0.88371380,-1.05225200,-1.04486600
-2.32050455,-0.88701010,-1.05445000,-1.04706400
-2.31950455,-0.89140520,-1.05774600,-1.05145900
-2.31850455,-0.89360270,-1.06214100,-1.05469400
-2.31750455,-0.89696010,-1.06653600,-1.05908900
-2.31650455,-0.89805880,-1.06873400,-1.06122600
-2.31550455,-0.90245390,-1.06983300,-1.06342300
-2.31450455,-0.90245390,-1.07203000,-1.06672000
-2.31350455,-0.90465140,-1.07422800,-1.06891700
-2.31250455,-0.90904650,-1.07752400,-1.06995500
-2.31150455,-0.91124400,-1.07862300,-1.07325100
-2.31050455,-0.91234280,-1.08075900,-1.07544900
-2.30950455,-0.91673790,-1.08405600,-1.07868400
-2.30850455,-0.91673790,-1.08625300,-1.07978300
-2.30750455,-0.91893540,-1.08955000,-1.08417800
-2.30650455,-0.92223170,-1.09064800,-1.08417800
-2.30550455,-0.92442920,-1.09284600,-1.08851200
-2.30450455,-0.92662680,-1.09724100,-1.09180800
-2.30350455,-0.92772560,-1.09834000,-1.09504300
-2.30250455,-0.92882430,-1.10383300,-1.09943800
-2.30150455,-0.93437920,-1.10493200,-1.10053700
-2.30050455,-0.93328040,-1.10493200,-1.10157500
-2.29950455,-0.93547800,-1.10822900,-1.10377200
-2.29850455,-0.93767550,-1.10932700,-1.10377200
-2.29750455,-0.94097180,-1.10822900,-1.10706900
-2.29650455,-0.94316930,-1.10932700,-1.10597000
-2.29550455,-0.94097180,-1.11042600,-1.10816800
-2.29450455,-0.94426810,-1.11262400,-1.10926600
-2.29350455,-0.94646560,-1.11262400,-1.11030400
-2.29250455,-0.94756440,-1.11262400,-1.11250200
-2.29150455,-0.94866320,-1.11482100,-1.11360000
-2.29050455,-0.95195940,-1.11482100,-1.11469900
-2.28950455,-0.95195940,-1.11701900,-1.11579800
-2.28850455,-0.95525570,-1.11811700,-1.11689700
-2.28750455,-0.95525570,-1.12031500,-1.12013200
-2.28650455,-0.95635450,-1.12355000,-1.12123100
-2.28550455,-0.95745330,-1.12464900,-1.12562600
-2.28450455,-0.96074960,-1.12574800,-1.12776200
-2.28350455,-0.96074960,-1.12574800,-1.12776200
-2.28250455,-0.96184840,-1.12574800,-1.12776200
-2.28150455,-0.96294710,-1.12684700,-1.12776200
-2.28050455,-0.96624340,-1.12684700,-1.12666300
-2.27950455,-0.96624340,-1.12464900,-1.12666300
-2.27850455,-0.96844090,-1.12464900,-1.12562600
-2.27750455,-0.96953970,-1.12464900,-1.12562600
-2.27650455,-0.96953970,-1.12464900,-1.12666300
-2.27550455,-0.96953970,-1.12574800,-1.12666300
-2.27450455,-0.97179830,-1.12464900,-1.12776200
-2.27350455,-0.97179830,-1.12684700,-1.12886100
-2.27250455,-0.97399580,-1.12904400,-1.12996000
-2.27150455,-0.97509460,-1.13014300,-1.13215700
-2.27050455,-0.97619340,-1.12904400,-1.13215700
-2.26950455,-0.97509460,-1.13014300,-1.13215700
-2.26850455,-0.97399580,-1.13124200,-1.13539200
-2.26750455,-0.97839090,-1.12904400,-1.13429400
-2.26650455,-0.97948970,-1.12904400,-1.13539200
-2.26550455,-0.97839090,-1.13234000,-1.13649100
-2.26450455,-0.97948970,-1.13343900,-1.13759000
-2.26350455,-0.98058840,-1.13453800,-1.13759000
-2.26250455,-0.97948970,-1.13563700,-1.13978800
-2.26150455,-0.97948970,-1.13453800,-1.13978800
-2.26050455,-0.98168720,-1.13563700,-1.14088600
-2.25950455,-0.98168720,-1.13563700,-1.13868900
-2.25850455,-0.98168720,-1.13563700,-1.14198500
-2.25750455,-0.98058840,-1.13673500,-1.13978800
-2.25650455,-0.98058840,-1.13673500,-1.14088600
-2.25550455,-0.98168720,-1.13673500,-1.14198500
-2.25450455,-0.98388480,-1.13673500,-1.14412200
-2.25350455,-0.98278590,-1.13673500,-1.14302300
-2.25250455,-0.98278590,-1.13673500,-1.14412200
-2.25150455,-0.98388480,-1.13783400,-1.14522000
-2.25050455,-0.98498350,-1.13893300,-1.14631900
-2.24950455,-0.98388480,-1.14003200,-1.14631900
-2.24850455,-0.98498350,-1.14113000,-1.14741800
-2.24750455,-0.98388480,-1.14113000,-1.14741800
-2.24650455,-0.98278590,-1.14003200,-1.14851700
-2.24550455,-0.98388480,-1.13893300,-1.14741800
-2.24450455,-0.98388480,-1.14003200,-1.14741800
-2.24350455,-0.98168720,-1.13893300,-1.14741800
-2.24250455,-0.98388480,-1.13783400,-1.14741800
-2.24150455,-0.98278590,-1.13563700,-1.14522000
-2.24050455,-0.98278590,-1.13453800,-1.14302300
-2.23950455,-0.98278590,-1.13343900,-1.14198500
-2.23850455,-0.97948970,-1.13124200,-1.13978800
-2.23750455,-0.98058840,-1.13014300,-1.13978800
-2.23650455,-0.98058840,-1.12684700,-1.13868900
-2.23550455,-0.97948970,-1.12574800,-1.13649100
-2.23450455,-0.98058840,-1.12355000,-1.13539200
-2.23350455,-0.97839090,-1.12141400,-1.13325600
-2.23250455,-0.97839090,-1.12031500,-1.13215700
-2.23150455,-0.97619340,-1.12031500,-1.13105800
-2.23050455,-0.97619340,-1.11921600,-1.13105800
-2.22950455,-0.97619340,-1.11811700,-1.12886100
-2.22850455,-0.97289710,-1.11811700,-1.12776200
-2.22750455,-0.97509460,-1.11592000,-1.12666300
-2.22650455,-0.97399580,-1.11482100,-1.12666300
-2.22550455,-0.97179830,-1.11372200,-1.12562600
-2.22450455,-0.97063850,-1.11262400,-1.12342800
-2.22350455,-0.97179830,-1.11042600,-1.12342800
-2.22250455,-0.96953970,-1.10822900,-1.12013200
-2.22150455,-0.96734220,-1.10713000,-1.11689700
-2.22050455,-0.96624340,-1.10163600,-1.11360000
-2.21950455,-0.96734220,-1.09943800,-1.11140300
-2.21850455,-0.96514460,-1.09724100,-1.10816800
-2.21750455,-0.96184840,-1.09174700,-1.10597000
-2.21650455,-0.96294710,-1.09174700,-1.10487100
-2.21550455,-0.96074960,-1.08845100,-1.10053700
-2.21450455,-0.96074960,-1.08405600,-1.09943800
-2.21350455,-0.95855210,-1.08075900,-1.09724100
-2.21250455,-0.95745330,-1.07862300,-1.09394500
-2.21150455,-0.95745330,-1.07752400,-1.09180800
-2.21050455,-0.95415700,-1.07312900,-1.08741300
-2.20950455,-0.95195940,-1.06983300,-1.08521500
-2.20850455,-0.94976190,-1.06653600,-1.08088100
-2.20750455,-0.94976190,-1.06324000,-1.07978300
-2.20650455,-0.94756440,-1.05994400,-1.07544900
-2.20550455,-0.94536690,-1.05664800,-1.07325100
-2.20450455,-0.94536690,-1.05554900,-1.07215200
-2.20350455,-0.94316930,-1.05335100,-1.06672000
-2.20250455,-0.94207050,-1.05005500,-1.06562100
-2.20150455,-0.93987300,-1.04785700,-1.06342300
-2.20050455,-0.93657670,-1.04456100,-1.06018800
-2.19950455,-0.93437920,-1.04126500,-1.05799000
-2.19850455,-0.93328040,-1.03796900,-1.05689200
-2.19750455,-0.93102180,-1.03583200,-1.05255800
-2.19650455,-0.93102180,-1.03473300,-1.04926100
-2.19550455,-0.92882430,-1.02923900,-1.04706400
-2.19450455,-0.92552800,-1.02704200,-1.04596500
-2.19350455,-0.92552800,-1.02484400,-1.04273000
-2.19250455,-0.92333050,-1.02154800,-1.03723600
-2.19150455,-0.91893540,-1.01935100,-1.03619800
-2.19050455,-0.91673790,-1.01495500,-1.03400100
-2.18950455,-0.91563910,-1.01056000,-1.02850700
-2.18850455,-0.91234280,-1.00726400,-1.02417300
-2.18750455,-0.91234280,-1.00177000,-1.02197500
-2.18650455,-0.90684900,-0.99847390,-1.01874000
-2.18550455,-0.90465140,-0.99407890,-1.01324600
-2.18450455,-0.90465140,-0.99084360,-1.01001100
-2.18350455,-0.89915760,-0.98864600,-1.00671500
-2.18250455,-0.89805880,-0.98315220,-1.00347900
-2.18150455,-0.89586130,-0.97985590,-1.00018300
-2.18050455,-0.89250400,-0.97655960,-0.99798560
-2.17950455,-0.89030640,-0.97436210,-0.99365160
-2.17850455,-0.88591130,-0.96667080,-0.98925650
-2.17750455,-0.88591130,-0.96337440,-0.98602120
-2.17650455,-0.88261500,-0.95897940,-0.98162620
-2.17550455,-0.88041750,-0.95678180,-0.97729210
-2.17450455,-0.87822000,-0.95238670,-0.97399580
-2.17350455,-0.87602250,-0.94915150,-0.97076060
-2.17250455,-0.87052860,-0.94585520,-0.96636550
-2.17150455,-0.86942980,-0.94255890,-0.96203150
-2.17050455,-0.86503480,-0.93926260,-0.95873520
-2.16950455,-0.86283730,-0.93486750,-0.95440110
-2.16850455,-0.85844220,-0.92937370,-0.95000610
-2.16750455,-0.85514590,-0.92387990,-0.94457330
-2.16650455,-0.85398610,-0.91948480,-0.94237580
-2.16550455,-0.84959100,-0.91508970,-0.93694300
-2.16450455,-0.84739350,-0.90849710,-0.93144910
-2.16350455,-0.84409710,-0.90306430,-0.92821390
-2.16250455,-0.84080090,-0.89976800,-0.92168230
-2.16150455,-0.83750460,-0.89537300,-0.91728720
-2.16050455,-0.83310950,-0.89097790,-0.91185440
-2.15950455,-0.83091200,-0.88658290,-0.90855810
-2.15850455,-0.82761570,-0.87999020,-0.90422420
-2.15750455,-0.82431940,-0.87339760,-0.89769260
-2.15650455,-0.82102300,-0.86790380,-0.89439630
-2.15550455,-0.81772670,-0.86356970,-0.88896350
-2.15450455,-0.81436940,-0.85807590,-0.88237090
-2.15350455,-0.81107310,-0.85258210,-0.87583940
-2.15250455,-0.80667810,-0.84818700,-0.87260410
-2.15150455,-0.80448050,-0.84379200,-0.86711030
-2.15050455,-0.80228300,-0.83939690,-0.86387500
-2.14950455,-0.79678920,-0.83390310,-0.85838120
-2.14850455,-0.79349290,-0.82950800,-0.85404710
-2.14750455,-0.78909780,-0.82291540,-0.85075080
-2.14650455,-0.78470270,-0.82077890,-0.84421930
-2.14550455,-0.78250520,-0.81418630,-0.83878650
-2.14450455,-0.77811010,-0.80869250,-0.83439140
-2.14350455,-0.77365400,-0.80429740,-0.83005740
-2.14250455,-0.76925890,-0.79990230,-0.82456350
-2.14150455,-0.76486380,-0.79440850,-0.81913070
-2.14050455,-0.76156760,-0.78671710,-0.81369790
-2.13950455,-0.75937000,-0.78232200,-0.80716640
-2.13850455,-0.75387620,-0.77688930,-0.80277130
-2.13750455,-0.75057990,-0.77029660,-0.79843730
-2.13650455,-0.74728360,-0.76590160,-0.79294350
-2.13550455,-0.74288850,-0.75930900,-0.78641190
-2.13450455,-0.73959220,-0.75381520,-0.77988030
-2.13350455,-0.73293860,-0.74722250,-0.77444760
-2.13250455,-0.72964230,-0.74063000,-0.76895370
-2.13150455,-0.72634600,-0.73733370,-0.76352100
-2.13050455,-0.72085210,-0.73080210,-0.75698940
-2.12950455,-0.71645710,-0.72420950,-0.75045780
-2.12850455,-0.71316080,-0.71981440,-0.74496400
-2.12750455,-0.70986450,-0.70992550,-0.73953120
-2.12650455,-0.70437060,-0.70662920,-0.73513610
-2.12550455,-0.69997560,-0.70003660,-0.72646810
-2.12450455,-0.69551940,-0.69344400,-0.72097420
-2.12350455,-0.69112440,-0.68801120,-0.71554140
-2.12250455,-0.68782810,-0.68031980,-0.70791110
-2.12150455,-0.68453180,-0.67372730,-0.70241730
-2.12050455,-0.67903790,-0.66823340,-0.69588570
-2.11950455,-0.67244540,-0.66164080,-0.68825540
-2.11850455,-0.67134660,-0.65724580,-0.68392130
-2.11750455,-0.66365520,-0.65065310,-0.67952630
-2.11650455,-0.66029790,-0.64522030,-0.67299470
-2.11550455,-0.65700160,-0.63862780,-0.66756190
-2.11450455,-0.65150770,-0.63423270,-0.66103040
-2.11350455,-0.64821140,-0.62654130,-0.65553650
-2.11250455,-0.64161880,-0.62324500,-0.65120260
-2.11150455,-0.63612500,-0.61555360,-0.64570870
-2.11050455,-0.63173000,-0.60896100,-0.63917710
-2.10950455,-0.62733490,-0.60352830,-0.63154680
-2.10850455,-0.62184100,-0.59583690,-0.62721280
-2.10750455,-0.61738490,-0.59034310,-0.62062020
-2.10650455,-0.61408870,-0.58375040,-0.61408870
-2.10550455,-0.60749600,-0.57825660,-0.60865580
-2.10450455,-0.60419970,-0.57166400,-0.60322300
-2.10350455,-0.59760710,-0.56617020,-0.59663050
-2.10250455,-0.59321210,-0.55963860,-0.59009890
-2.10150455,-0.58881700,-0.55414480,-0.58466610
-2.10050455,-0.58106460,-0.54645340,-0.57813450
-2.09950455,-0.57666950,-0.54095960,-0.57264070
-2.09850455,-0.57227440,-0.53436700,-0.56610910
-2.09750455,-0.56897810,-0.52777440,-0.55957760
-2.09650455,-0.56458310,-0.52118180,-0.55304600
-2.09550455,-0.55689170,-0.51684770,-0.54865100
-2.09450455,-0.55249660,-0.51025520,-0.54211940
-2.09350455,-0.54590400,-0.50256380,-0.53339030
-2.09250455,-0.54144790,-0.49597120,-0.52795750
-2.09150455,-0.53595410,-0.49047740,-0.52142600
-2.09050455,-0.53155900,-0.48498350,-0.51483330
-2.08950455,-0.52716400,-0.47729220,-0.50940050
-2.08850455,-0.51947260,-0.47295810,-0.50396780
-2.08750455,-0.51507750,-0.46636550,-0.49847390
