Frequency,Channel A,Channel B,Channel C
(ms),(V),(V),(V)

-2.50143303,0.01208644,0.05371749,0.08826761
-2.50043303,0.00659260,0.04169210,0.07514345
-2.49943303,0.00000000,0.03290197,0.06641436
-2.49843303,-0.00445611,0.02301306,0.05658650
-2.49743303,-0.00994995,0.01422293,0.04572091
-2.49643303,-0.01764131,0.00323526,0.03479429
-2.49543303,-0.02313515,-0.00659260,0.02386766
-2.49443303,-0.02972775,-0.01648150,0.01410084
-2.49343303,-0.03522158,-0.02746917,0.00427298
-2.49243303,-0.04187523,-0.03735808,-0.00445611
-2.49143303,-0.04846783,-0.04718594,-0.01428397
-2.49043303,-0.05506043,-0.05817360,-0.02521060
-2.48943303,-0.06055427,-0.06806251,-0.03717495
-2.48843303,-0.06824563,-0.07795141,-0.04810157
-2.48743303,-0.07154194,-0.08887804,-0.05573190
-2.48643303,-0.07819558,-0.09766817,-0.06879502
-2.48543303,-0.08478818,-0.10865580,-0.07752411
-2.48443303,-0.09138078,-0.11964350,-0.08625320
-2.48343303,-0.09687462,-0.12953240,-0.09827860
-2.48243303,-0.10346720,-0.13826150,-0.10700770
-2.48143303,-0.11005980,-0.14924920,-0.11677450
-2.48043303,-0.11445490,-0.15913810,-0.12879990
-2.47943303,-0.12440480,-0.17122450,-0.13752900
-2.47843303,-0.12879990,-0.17995360,-0.14949330
-2.47743303,-0.13429370,-0.19094130,-0.15822240
-2.47643303,-0.14088630,-0.19863260,-0.16914910
-2.47543303,-0.14528140,-0.20852150,-0.18007570
-2.47443303,-0.15077520,-0.21834940,-0.18984250
-2.47343303,-0.15852760,-0.22713950,-0.19967040
-2.47243303,-0.16402150,-0.23922600,-0.21059700
-2.47143303,-0.17061410,-0.24911490,-0.22042490
-2.47043303,-0.17610790,-0.25900380,-0.22805520
-2.46943303,-0.18160180,-0.26883160,-0.24111830
-2.46843303,-0.18819440,-0.27981930,-0.24874860
-2.46743303,-0.19484800,-0.28860940,-0.26077400
-2.46643303,-0.20034180,-0.29959710,-0.27163960
-2.46543303,-0.20803320,-0.30942500,-0.28036870
-2.46443303,-0.21132950,-0.31821510,-0.28909780
-2.46343303,-0.21792210,-0.32920280,-0.30002440
-2.46243303,-0.22561350,-0.33799290,-0.30875350
-2.46143303,-0.23110730,-0.34782080,-0.31858140
-2.46043303,-0.23666220,-0.35661090,-0.32834820
-2.45943303,-0.24325480,-0.36649980,-0.33707730
-2.45843303,-0.24874860,-0.37748750,-0.34800390
-2.45743303,-0.25314370,-0.38627760,-0.35673300
-2.45643303,-0.26083510,-0.39500670,-0.36656080
-2.45543303,-0.26632890,-0.40379690,-0.37528990
-2.45443303,-0.26962520,-0.41258700,-0.38615550
-2.45343303,-0.27847640,-0.42247590,-0.39598340
-2.45243303,-0.28397020,-0.43126600,-0.40361370
-2.45143303,-0.29056280,-0.44109390,-0.41454040
-2.45043303,-0.29495790,-0.45098280,-0.42326950
-2.44943303,-0.30155050,-0.46087170,-0.43413500
-2.44843303,-0.30814310,-0.46966180,-0.44286410
-2.44743303,-0.31589550,-0.47948970,-0.45049440
-2.44643303,-0.31809300,-0.48827980,-0.46032230
-2.44543303,-0.32468560,-0.49597120,-0.47234770
-2.44443303,-0.33237700,-0.50586010,-0.47778050
-2.44343303,-0.33457450,-0.51574900,-0.48760830
-2.44243303,-0.34336470,-0.52447810,-0.49743620
-2.44143303,-0.34885850,-0.53326820,-0.50720300
-2.44043303,-0.35441340,-0.54205830,-0.51593210
-2.43943303,-0.35990720,-0.55194720,-0.52466120
-2.43843303,-0.36430230,-0.55963860,-0.53229150
-2.43743303,-0.36979610,-0.56836770,-0.54211940
-2.43643303,-0.37748750,-0.57496030,-0.54974970
-2.43543303,-0.38298130,-0.58484920,-0.55847880
-2.43443303,-0.38737640,-0.59363940,-0.56720790
-2.43343303,-0.39403000,-0.60242950,-0.57593700
-2.43243303,-0.39952390,-0.60896100,-0.58466610
-2.43143303,-0.40501770,-0.61665240,-0.59229640
-2.43043303,-0.41051150,-0.62434380,-0.60102550
-2.42943303,-0.41600540,-0.63203510,-0.60865580
-2.42843303,-0.42149920,-0.64082530,-0.61628620
-2.42743303,-0.42699300,-0.64955440,-0.62281770
-2.42643303,-0.43254790,-0.65504820,-0.63044800
-2.42543303,-0.43914050,-0.66164080,-0.63917710
-2.42443303,-0.44463430,-0.66823340,-0.64467100
-2.42343303,-0.45122690,-0.67482600,-0.65120260
-2.42243303,-0.45562200,-0.68141860,-0.65773410
-2.42143303,-0.46111580,-0.68581370,-0.66103040
-2.42043303,-0.46667070,-0.69130750,-0.66969840
-2.41943303,-0.47216460,-0.69674030,-0.67409350
-2.41843303,-0.47765840,-0.70223410,-0.67738980
-2.41743303,-0.48205350,-0.70443170,-0.68282260
-2.41643303,-0.48754730,-0.70992550,-0.68825540
-2.41543303,-0.49633740,-0.71432060,-0.69265040
-2.41443303,-0.49853500,-0.72091320,-0.69808330
-2.41343303,-0.50512750,-0.72530820,-0.70241730
-2.41243303,-0.50958370,-0.72970330,-0.70681230
-2.41143303,-0.51507750,-0.73623490,-0.71224510
-2.41043303,-0.52057140,-0.73953120,-0.71554140
-2.40943303,-0.52606520,-0.74172870,-0.71987550
-2.40843303,-0.53155900,-0.74502500,-0.72207300
-2.40743303,-0.53595410,-0.75051890,-0.72646810
-2.40643303,-0.54144790,-0.75051890,-0.72860460
-2.40543303,-0.54590400,-0.75381520,-0.73080210
-2.40443303,-0.55249660,-0.75491390,-0.73190090
-2.40343303,-0.55799050,-0.75601270,-0.73409840
-2.40243303,-0.56348430,-0.75711140,-0.73513610
-2.40143303,-0.56897810,-0.75821020,-0.73733370
-2.40043303,-0.57337320,-0.75930900,-0.73843240
-2.39943303,-0.57776830,-0.75930900,-0.73843240
-2.39843303,-0.58442190,-0.75930900,-0.74172870
-2.39743303,-0.58771820,-0.76260530,-0.74386520
-2.39643303,-0.59101450,-0.76480280,-0.74496400
-2.39543303,-0.59870590,-0.76700040,-0.74716150
-2.39443303,-0.60200220,-0.76919790,-0.74826030
-2.39343303,-0.60859480,-0.77139540,-0.75149550
-2.39243303,-0.61298980,-0.77359290,-0.75369300
-2.39143303,-0.61738490,-0.77579050,-0.75698940
-2.39043303,-0.62293980,-0.77902570,-0.75912580
-2.38943303,-0.62733490,-0.78232200,-0.76242210
-2.38843303,-0.63173000,-0.78451960,-0.76461970
-2.38743303,-0.63722380,-0.78671710,-0.76681720
-2.38643303,-0.64271760,-0.79111220,-0.77115120
-2.38543303,-0.64491520,-0.79550730,-0.77658400
-2.38443303,-0.65040900,-0.79770480,-0.77768280
-2.38343303,-0.65480410,-0.79990230,-0.78207790
-2.38243303,-0.66029790,-0.80209980,-0.78641190
-2.38143303,-0.66475400,-0.80539610,-0.78751070
-2.38043303,-0.67024780,-0.80869250,-0.79294350
-2.37943303,-0.67354410,-0.81198880,-0.79514100
-2.37843303,-0.67793920,-0.81748260,-0.79843730
-2.37743303,-0.68123550,-0.81968010,-0.80496880
-2.37643303,-0.68892690,-0.82511290,-0.80820410
-2.37543303,-0.69002560,-0.82950800,-0.81259920
-2.37443303,-0.69661820,-0.83500180,-0.81693320
-2.37343303,-0.70217310,-0.83829810,-0.82022950
-2.37243303,-0.70546940,-0.84269320,-0.82566230
-2.37143303,-0.70876570,-0.84708830,-0.82895860
-2.37043303,-0.71206200,-0.84928580,-0.83329260
-2.36943303,-0.71865460,-0.85368080,-0.83658890
-2.36843303,-0.72195090,-0.85587840,-0.83988520
-2.36743303,-0.72744480,-0.85917470,-0.84202170
-2.36643303,-0.73183980,-0.86247100,-0.84421930
-2.36543303,-0.73403730,-0.86137220,-0.84531800
-2.36443303,-0.73959220,-0.86137220,-0.84641680
-2.36343303,-0.74398730,-0.86137220,-0.84641680
-2.36243303,-0.74728360,-0.86247100,-0.84641680
-2.36143303,-0.75057990,-0.86460750,-0.84861430
-2.36043303,-0.75497500,-0.86460750,-0.84965210
-2.35943303,-0.75827130,-0.86790380,-0.85294840
-2.35843303,-0.76376510,-0.87229880,-0.85624460
-2.35743303,-0.76596260,-0.87229880,-0.85838120
-2.35643303,-0.77035770,-0.87779270,-0.86277620
-2.35543303,-0.77475270,-0.88218770,-0.86601140
-2.35443303,-0.77811010,-0.88548400,-0.87260410
-2.35343303,-0.78140640,-0.88878040,-0.87474050
-2.35243303,-0.78580150,-0.89427420,-0.87913560
-2.35143303,-0.78909780,-0.89866920,-0.88456840
-2.35043303,-0.79239410,-0.90416310,-0.89110000
-2.34943303,-0.79569040,-0.90745940,-0.89439630
-2.34843303,-0.80008540,-0.91179340,-0.89873030
-2.34743303,-0.80448050,-0.91618850,-0.90312530
-2.34643303,-0.80777680,-0.92058350,-0.90745940
-2.34543303,-0.80997440,-0.92278110,-0.91075570
-2.34443303,-0.81436940,-0.92497860,-0.91405200
-2.34343303,-0.81882550,-0.92717620,-0.91618850
-2.34243303,-0.82212190,-0.93157120,-0.91838600
-2.34143303,-0.82322060,-0.93267000,-0.92168230
-2.34043303,-0.82651690,-0.93486750,-0.92381880
-2.33943303,-0.83091200,-0.93816380,-0.92711510
-2.33843303,-0.83420830,-0.93926260,-0.93035040
-2.33743303,-0.83750460,-0.94365760,-0.93254790
-2.33643303,-0.83970210,-0.94585520,-0.93584420
-2.33543303,-0.84409710,-0.95128800,-0.94017820
-2.33443303,-0.84739350,-0.95458430,-0.94347450
-2.33343303,-0.85068980,-0.95897940,-0.94670980
-2.33243303,-0.85178850,-0.96227560,-0.95330240
-2.33143303,-0.85624460,-0.96557190,-0.95440110
-2.33043303,-0.85844220,-0.96886830,-0.96093270
-2.32943303,-0.86393600,-0.97546090,-0.96526680
-2.32843303,-0.86613360,-0.97765840,-0.96856300
-2.32743303,-0.86833110,-0.98425100,-0.97509460
-2.32643303,-0.87272610,-0.98644850,-0.97729210
-2.32543303,-0.87272610,-0.98974480,-0.98162620
-2.32443303,-0.87822000,-0.99304120,-0.98492250
-2.32343303,-0.87931880,-0.99737510,-0.98925650
-2.32243303,-0.88261500,-1.00067200,-0.99255280
-2.32143303,-0.88481260,-1.00286900,-0.99798560
-2.32043303,-0.88810890,-1.00946200,-1.00128200
-2.31943303,-0.89140520,-1.01275800,-1.00451700
-2.31843303,-0.89360270,-1.01605400,-1.00891200
-2.31743303,-0.89696010,-1.02154800,-1.01434500
-2.31643303,-0.89805880,-1.02594300,-1.01764100
-2.31543303,-0.90135510,-1.03033800,-1.02307400
-2.31443303,-0.90355270,-1.03143700,-1.02527200
-2.31343303,-0.90684900,-1.03363400,-1.02746900
-2.31243303,-0.90794770,-1.03796900,-1.03070400
-2.31143303,-0.91234280,-1.04236400,-1.03400100
-2.31043303,-0.91234280,-1.04456100,-1.03723600
-2.30943303,-0.91454040,-1.04675900,-1.04053200
-2.30843303,-0.91893540,-1.04895600,-1.04382900
-2.30743303,-0.91783670,-1.05115400,-1.04596500
-2.30643303,-0.92003420,-1.05554900,-1.05036000
-2.30543303,-0.92442920,-1.05554900,-1.05359500
-2.30443303,-0.92662680,-1.05884500,-1.05469400
-2.30343303,-0.92772560,-1.05994400,-1.05799000
-2.30243303,-0.92992310,-1.06104300,-1.05799000
-2.30143303,-0.93102180,-1.06214100,-1.06018800
-2.30043303,-0.93328040,-1.06324000,-1.06018800
-2.29943303,-0.93657670,-1.06433900,-1.06122600
-2.29843303,-0.93767550,-1.06543800,-1.06342300
-2.29743303,-0.93987300,-1.06763500,-1.06342300
-2.29643303,-0.94097180,-1.06983300,-1.06672000
-2.29543303,-0.94316930,-1.07203000,-1.06891700
-2.29443303,-0.94426810,-1.07532700,-1.07105400
-2.29343303,-0.94426810,-1.07862300,-1.07544900
-2.29243303,-0.94646560,-1.08075900,-1.07868400
-2.29143303,-0.94866320,-1.08295700,-1.08088100
-2.29043303,-0.94866320,-1.08515400,-1.08521500
-2.28943303,-0.95305820,-1.08845100,-1.08851200
-2.28843303,-0.95525570,-1.09284600,-1.09180800
-2.28743303,-0.95635450,-1.09284600,-1.09290700
-2.28643303,-0.95635450,-1.09614200,-1.09504300
-2.28543303,-0.95635450,-1.10053700,-1.09834000
-2.28443303,-0.95965080,-1.10053700,-1.10053700
-2.28343303,-0.95855210,-1.10163600,-1.10267400
-2.28243303,-0.96184840,-1.10493200,-1.10377200
-2.28143303,-0.96404590,-1.10603100,-1.10597000
-2.28043303,-0.96514460,-1.10822900,-1.11030400
-2.27943303,-0.96514460,-1.11152500,-1.11140300
-2.27843303,-0.96734220,-1.11152500,-1.11250200
-2.27743303,-0.96734220,-1.11372200,-1.11360000
-2.27643303,-0.96953970,-1.11482100,-1.11579800
-2.27543303,-0.97063850,-1.11592000,-1.11793400
-2.27443303,-0.97179830,-1.11701900,-1.12013200
-2.27343303,-0.97179830,-1.11811700,-1.12013200
-2.27243303,-0.97289710,-1.11921600,-1.12123100
-2.27143303,-0.97289710,-1.12031500,-1.12232900
-2.27043303,-0.97289710,-1.12141400,-1.12232900
-2.26943303,-0.97399580,-1.12251200,-1.12342800
-2.26843303,-0.97399580,-1.12355000,-1.12666300
-2.26743303,-0.97948970,-1.12464900,-1.12776200
-2.26643303,-0.97729210,-1.12574800,-1.12886100
-2.26543303,-0.97729210,-1.12574800,-1.12776200
-2.26443303,-0.97948970,-1.12464900,-1.12886100
-2.26343303,-0.98058840,-1.12464900,-1.12886100
-2.26243303,-0.98058840,-1.12574800,-1.12996000
-2.26143303,-0.97948970,-1.12464900,-1.13105800
-2.26043303,-0.98278590,-1.12574800,-1.13105800
-2.25943303,-0.98168720,-1.12574800,-1.13105800
-2.25843303,-0.98168720,-1.12684700,-1.13215700
-2.25743303,-0.98168720,-1.12574800,-1.13105800
-2.25643303,-0.98278590,-1.12574800,-1.13105800
-2.25543303,-0.98058840,-1.12684700,-1.13325600
-2.25443303,-0.98278590,-1.12355000,-1.13215700
-2.25343303,-0.98278590,-1.12355000,-1.12996000
-2.25243303,-0.98278590,-1.12464900,-1.13105800
-2.25143303,-0.98278590,-1.12355000,-1.13215700
-2.25043303,-0.98168720,-1.12574800,-1.13325600
-2.24943303,-0.98388480,-1.12464900,-1.13325600
-2.24843303,-0.98388480,-1.12464900,-1.13215700
-2.24743303,-0.98498350,-1.12574800,-1.13325600
-2.24643303,-0.98498350,-1.12684700,-1.13325600
-2.24543303,-0.98278590,-1.12794500,-1.13429400
-2.24443303,-0.98388480,-1.12574800,-1.13429400
-2.24343303,-0.98168720,-1.12355000,-1.13325600
-2.24243303,-0.98058840,-1.12464900,-1.13215700
-2.24143303,-0.98278590,-1.12141400,-1.13215700
-2.24043303,-0.98168720,-1.12251200,-1.13215700
-2.23943303,-0.98058840,-1.12251200,-1.13215700
-2.23843303,-0.98388480,-1.12251200,-1.13215700
-2.23743303,-0.97948970,-1.12355000,-1.13215700
-2.23643303,-0.97948970,-1.12355000,-1.13215700
-2.23543303,-0.97948970,-1.12251200,-1.13325600
-2.23443303,-0.97948970,-1.12251200,-1.13429400
-2.23343303,-0.97839090,-1.12141400,-1.13215700
-2.23243303,-0.97729210,-1.12141400,-1.13105800
-2.23143303,-0.97619340,-1.12141400,-1.12996000
-2.23043303,-0.97509460,-1.12031500,-1.12996000
-2.22943303,-0.97619340,-1.11811700,-1.12996000
-2.22843303,-0.97509460,-1.11921600,-1.12886100
-2.22743303,-0.97509460,-1.11592000,-1.12886100
-2.22643303,-0.97289710,-1.11482100,-1.12666300
-2.22543303,-0.97289710,-1.11152500,-1.12666300
-2.22443303,-0.97063850,-1.11152500,-1.12342800
-2.22343303,-0.96953970,-1.10932700,-1.12342800
-2.22243303,-0.96844090,-1.10822900,-1.11903300
-2.22143303,-0.96953970,-1.10603100,-1.11579800
-2.22043303,-0.96734220,-1.10383300,-1.11579800
-2.21943303,-0.96624340,-1.10053700,-1.11469900
-2.21843303,-0.96514460,-1.09943800,-1.11140300
-2.21743303,-0.96294710,-1.09724100,-1.10926600
-2.21643303,-0.96294710,-1.09394500,-1.10926600
-2.21543303,-0.96184840,-1.09064800,-1.10487100
-2.21443303,-0.95965080,-1.08845100,-1.10267400
-2.21343303,-0.95745330,-1.08515400,-1.09834000
-2.21243303,-0.95745330,-1.08075900,-1.09614200
-2.21143303,-0.95415700,-1.07862300,-1.09290700
-2.21043303,-0.95305820,-1.07422800,-1.08961100
-2.20943303,-0.95305820,-1.07093100,-1.08631400
-2.20843303,-0.95305820,-1.06873400,-1.08417800
-2.20743303,-0.94976190,-1.06653600,-1.08088100
-2.20643303,-0.94756440,-1.06214100,-1.07758500
-2.20543303,-0.94646560,-1.05884500,-1.07435000
-2.20443303,-0.94536690,-1.05445000,-1.07105400
-2.20343303,-0.94207050,-1.05225200,-1.06781800
-2.20243303,-0.94097180,-1.04785700,-1.06672000
-2.20143303,-0.93987300,-1.04566000,-1.06232500
-2.20043303,-0.93767550,-1.04456100,-1.06122600
-2.19943303,-0.93547800,-1.04016600,-1.05689200
-2.19843303,-0.93328040,-1.03906700,-1.05359500
-2.19743303,-0.93212060,-1.03363400,-1.05359500
-2.19643303,-0.92882430,-1.03143700,-1.05036000
-2.19543303,-0.92772560,-1.02704200,-1.04596500
-2.19443303,-0.92662680,-1.02594300,-1.04163100
-2.19343303,-0.92552800,-1.02044900,-1.03943300
-2.19243303,-0.92113290,-1.01825200,-1.03400100
-2.19143303,-0.92003420,-1.01275800,-1.03180300
-2.19043303,-0.91673790,-1.00946200,-1.02637000
-2.18943303,-0.91454040,-1.00396800,-1.02307400
-2.18843303,-0.91234280,-0.99957270,-1.01874000
-2.18743303,-0.91124400,-0.99517760,-1.01434500
-2.18643303,-0.90684900,-0.99084360,-1.01111000
-2.18543303,-0.90465140,-0.98754730,-1.00781300
-2.18443303,-0.90355270,-0.98315220,-1.00347900
-2.18343303,-0.90135510,-0.97875710,-1.00018300
-2.18243303,-0.89805880,-0.97655960,-0.99578800
-2.18143303,-0.89586130,-0.96996700,-0.99035530
-2.18043303,-0.89476250,-0.96776950,-0.98815770
-2.17943303,-0.89030640,-0.96337440,-0.98272490
-2.17843303,-0.88810890,-0.95897940,-0.97942860
-2.17743303,-0.88591130,-0.95458430,-0.97509460
-2.17643303,-0.88371380,-0.94915150,-0.97076060
-2.17543303,-0.87931880,-0.94475640,-0.96636550
-2.17443303,-0.87602250,-0.93926260,-0.96203150
-2.17343303,-0.87492370,-0.93596630,-0.95763640
-2.17243303,-0.87162740,-0.93047240,-0.95330240
-2.17143303,-0.86942980,-0.92717620,-0.95000610
-2.17043303,-0.86613360,-0.92278110,-0.94457330
-2.16943303,-0.86283730,-0.91618850,-0.94017820
-2.16843303,-0.85954090,-0.91289220,-0.93584420
-2.16743303,-0.85734340,-0.90849710,-0.93144910
-2.16643303,-0.85398610,-0.90196560,-0.92381880
-2.16543303,-0.84959100,-0.89757050,-0.92058350
-2.16443303,-0.84849230,-0.89317540,-0.91618850
-2.16343303,-0.84519590,-0.88768160,-0.91295330
-2.16243303,-0.84080090,-0.88438530,-0.90636060
-2.16143303,-0.83750460,-0.87999020,-0.90422420
-2.16043303,-0.83640580,-0.87779270,-0.89982910
-2.15943303,-0.83201070,-0.87229880,-0.89549510
-2.15843303,-0.82871440,-0.86900260,-0.89219870
-2.15743303,-0.82322060,-0.86460750,-0.88786470
-2.15643303,-0.82322060,-0.86027350,-0.88346960
-2.15543303,-0.81882550,-0.85587840,-0.88133320
-2.15443303,-0.81546820,-0.85148330,-0.87693810
-2.15343303,-0.81217190,-0.84708830,-0.87260410
-2.15243303,-0.80887560,-0.84159440,-0.86601140
-2.15143303,-0.80448050,-0.83610060,-0.86057870
-2.15043303,-0.80118420,-0.83170550,-0.85728240
-2.14943303,-0.79788790,-0.82621170,-0.85294840
-2.14843303,-0.79239410,-0.82077890,-0.84751560
-2.14743303,-0.79019650,-0.81528510,-0.83988520
-2.14643303,-0.78690020,-0.81089000,-0.83658890
-2.14543303,-0.78250520,-0.80539610,-0.82895860
-2.14443303,-0.77811010,-0.79880360,-0.82352580
-2.14343303,-0.77475270,-0.79221090,-0.81913070
-2.14243303,-0.77145650,-0.78671710,-0.81150040
-2.14143303,-0.76816020,-0.77902570,-0.80387010
-2.14043303,-0.76266630,-0.77249420,-0.79843730
-2.13943303,-0.75827130,-0.76590160,-0.79184470
-2.13843303,-0.75607370,-0.76150650,-0.78641190
-2.13743303,-0.75167860,-0.75601270,-0.78207790
-2.13643303,-0.74948110,-0.74942010,-0.77658400
-2.13543303,-0.74178980,-0.74502500,-0.77225000
-2.13443303,-0.73733370,-0.73843240,-0.76571850
-2.13343303,-0.73623490,-0.73299960,-0.75912580
-2.13243303,-0.73074100,-0.72640710,-0.75479190
-2.13143303,-0.72744480,-0.71981440,-0.74935900
-2.13043303,-0.72304970,-0.71541940,-0.74172870
-2.12943303,-0.71865460,-0.70882680,-0.73733370
-2.12843303,-0.71645710,-0.70223410,-0.72970330
-2.12743303,-0.70986450,-0.69674030,-0.72646810
-2.12643303,-0.70437060,-0.69020870,-0.71877670
-2.12543303,-0.70107440,-0.68581370,-0.71334390
-2.12443303,-0.69771700,-0.68031980,-0.70791110
-2.12343303,-0.69222320,-0.67372730,-0.70241730
-2.12243303,-0.68672930,-0.66933220,-0.69698450
-2.12143303,-0.68233420,-0.66493710,-0.69045290
-2.12043303,-0.67793920,-0.65834450,-0.68605790
-2.11943303,-0.67354410,-0.65065310,-0.68062510
-2.11843303,-0.66914900,-0.64522030,-0.67519230
-2.11743303,-0.66695150,-0.63972650,-0.66866070
-2.11643303,-0.65919910,-0.63423270,-0.66206810
-2.11543303,-0.65590280,-0.62654130,-0.65663530
-2.11443303,-0.65260650,-0.62104750,-0.65010370
-2.11343303,-0.64711270,-0.61665240,-0.64467100
-2.11243303,-0.64161880,-0.60896100,-0.63917710
-2.11143303,-0.63722380,-0.60352830,-0.63264560
-2.11043303,-0.63282870,-0.59693560,-0.62721280
-2.10943303,-0.62953240,-0.59144180,-0.61848370
-2.10843303,-0.62293980,-0.58484920,-0.61408870
-2.10743303,-0.62068120,-0.57715790,-0.60975460
-2.10643303,-0.61298980,-0.57166400,-0.60322300
-2.10543303,-0.60749600,-0.56507140,-0.59663050
-2.10443303,-0.60419970,-0.55853990,-0.59119770
-2.10343303,-0.59760710,-0.55194720,-0.58466610
-2.10243303,-0.59101450,-0.54755220,-0.57813450
-2.10143303,-0.58881700,-0.54095960,-0.57050420
-2.10043303,-0.58332310,-0.53546570,-0.56501040
-2.09943303,-0.57996580,-0.52777440,-0.55738000
-2.09843303,-0.57337320,-0.52228060,-0.55414480
-2.09743303,-0.57007690,-0.51465020,-0.54651450
-2.09643303,-0.56458310,-0.50915640,-0.54211940
-2.09543303,-0.56018800,-0.50256380,-0.53448900
-2.09443303,-0.55469420,-0.49707000,-0.52795750
-2.09343303,-0.54810150,-0.49047740,-0.52252470
-2.09243303,-0.54364540,-0.48498350,-0.51483330
-2.09143303,-0.53815160,-0.47729220,-0.50940050
-2.09043303,-0.53265780,-0.47185930,-0.50286900
-2.08943303,-0.52167010,-0.46526680,-0.49633740
-2.08843303,-0.52057140,-0.45867410,-0.49194240
-2.08743303,-0.51507750,-0.45427910,-0.48541080
