Frequency,Channel A,Channel B,Channel C
(ms),(V),(V),(V)

-10.00301389,-0.01632890,0.04852887,-0.04578196
-10.00101389,-0.00549384,0.02151752,-0.04028812
-9.99901389,0.00534123,0.02151752,-0.03494689
-9.99701389,0.01617629,0.03509950,-0.02960566
-9.99501389,0.02975827,0.04318764,-0.01617629
-9.99301389,0.03784642,0.04578196,-0.01083506
-9.99101389,0.05142840,0.05402271,-0.00274692
-9.98901389,0.06501038,0.06211085,0.00259431
-9.98701389,0.07309853,0.05936394,0.00793554
-9.98501389,0.08393358,0.07828714,0.01877060
-9.98301389,0.09476864,0.07828714,0.02670614
-9.98101389,0.10560370,0.09721035,0.03479429
-9.97901389,0.11643880,0.10804540,0.04013551
-9.97701389,0.12727380,0.11063970,0.05097058
-9.97501389,0.14360270,0.11613360,0.06165303
-9.97301389,0.15977900,0.18083870,0.07248810
-9.97101389,0.16252590,0.12956290,0.07782932
-9.96901389,0.17336100,0.14573920,0.08851178
-9.96701389,0.18694300,0.15932120,0.09934685
-9.96501389,0.19503110,0.16740930,0.10728240
-9.96301389,0.20586620,0.17549750,0.12071180
-9.96101389,0.21944820,0.18633260,0.12879990
-9.95901389,0.23028320,0.19442070,0.14222930
-9.95701389,0.23028320,0.24310220,0.15031740
-9.95501389,0.25195340,0.21334390,0.15565860
-9.95301389,0.26278840,0.21868510,0.16649370
-9.95101389,0.27362350,0.23226710,0.17442930
-9.94901389,0.28445850,0.24310220,0.18526430
-9.94701389,0.29529360,0.25119030,0.20128800
-9.94501389,0.30612870,0.26202540,0.20937610
-9.94301389,0.31711630,0.27545480,0.22021120
-9.94101389,0.32795140,0.27820170,0.22814670
-9.93901389,0.33878650,0.29712490,0.24157610
-9.93701389,0.34962150,0.30780740,0.25500550
-9.93501389,0.36045660,0.32138930,0.26843490
-9.93301389,0.36854470,0.29712490,0.27926990
-9.93101389,0.38212670,0.34305950,0.29529360
-9.92901389,0.39021490,0.36183010,0.30872300
-9.92701389,0.40379690,0.43218170,0.32489930
-9.92501389,0.41188500,0.38884140,0.33558170
-9.92301389,0.42272000,0.40517030,0.35175800
-9.92101389,0.43080820,0.41859970,0.36518740
-9.91901389,0.44439020,0.43477600,0.38395800
-9.91701389,0.45263090,0.46178730,0.40547550
-9.91501389,0.46346600,0.47811620,0.42424610
-9.91301389,0.47155410,0.48879870,0.44301670
-9.91101389,0.47689540,0.51581000,0.46178730
-9.90901389,0.49322430,0.54022710,0.48605180
-9.90701389,0.50405930,0.56723850,0.51291050
-9.90501389,0.51214750,0.58875600,0.53976920
-9.90301389,0.52038820,0.62126110,0.56388110
-9.90101389,0.53122330,0.63469050,0.58539860
-9.89901389,0.53931140,0.67528380,0.62568670
-9.89701389,0.55014650,0.71847150,0.66597490
-9.89501389,0.55823460,0.75082410,0.70626290
-9.89301389,0.56906970,0.79675870,0.74655110
-9.89101389,0.57731040,0.82926380,0.78409230
-9.88901389,0.58539860,0.86711030,0.81903920
-9.88701389,0.59623370,0.89412160,0.85123910
-9.88501389,0.60432180,0.92113290,0.87550360
-9.88301389,0.61515690,0.94539740,0.89961540
-9.88101389,0.62599190,0.76440600,0.92372730
-9.87901389,0.63148580,0.98858500,0.93990360
-9.87701389,0.64232080,1.00750800,0.96401540
-9.87501389,0.65040900,1.02368500,0.98019160
-9.87301389,0.65849710,1.04535500,0.99896230
-9.87101389,0.66673790,1.06153100,1.02048000
-9.86901389,0.67482600,1.08320100,1.03665600
-9.86701389,0.68291410,1.09128900,1.05268000
-9.86501389,0.68840800,1.13173000,1.07145000
-9.86301389,0.69924310,1.13447700,1.09571500
-9.86101389,0.70733120,1.17507000,1.13325600
-9.85901389,0.71541940,1.20467600,1.16286200
-9.85701389,0.72366010,1.21825800,1.17888500
-9.85501389,0.73174820,1.23977500,1.19765600
-9.85301389,0.73983640,1.25061000,1.21657900
-9.85101389,0.74533020,1.27762200,1.23535000
-9.84901389,0.75067140,1.29120400,1.25686700
-9.84701389,0.75891220,1.32080900,1.28097900
-9.84501389,0.76700040,1.34248000,1.30509100
-9.84301389,0.77234160,1.36674400,1.32935500
-9.84101389,0.78058230,1.38307300,1.35621400
-9.83901389,0.78867050,1.41267800,1.38307300
-9.83701389,0.79675870,1.43160200,1.40459000
-9.83501389,0.80484680,1.49371300,1.41802000
-9.83301389,0.80759370,1.48028300,1.44487800
-9.83101389,0.81308750,1.50454800,1.47173700
-9.82901389,0.81842880,1.53430600,1.49584900
-9.82701389,0.82666950,1.55582300,1.52270800
-9.82501389,0.83201070,1.58024000,1.54682000
-9.82301389,0.84009890,1.60450500,1.56833700
-9.82101389,0.84284580,1.62617500,1.59244900
-9.81901389,0.84833960,1.64509800,1.61671300
-9.81701389,0.85642780,1.66936300,1.63548400
-9.81501389,0.85917470,1.68553900,1.65959600
-9.81301389,0.86451590,1.71255000,1.67851900
-9.81101389,0.87000980,1.73147400,1.69988400
-9.80901389,0.87535100,1.74230900,1.71880700
-9.80701389,0.87809790,1.76657300,1.74017200
-9.80501389,0.88618610,1.79083800,1.76169000
-9.80301389,0.89167990,1.80716600,1.77786600
-9.80101389,0.89442680,1.82593700,1.79938300
-9.79901389,0.89976800,1.85035400,1.82074800
-9.79701389,0.90251490,1.87461800,1.84501300
-9.79501389,0.90526190,1.90712400,1.86653000
-9.79301389,0.91060310,1.91246500,1.88530100
-9.79101389,0.91335000,1.92330000,1.89873000
-9.78901389,0.92143820,2.02325700,1.91475400
-9.78701389,0.92143820,1.95565200,1.92818300
-9.78501389,0.92418500,1.96648800,1.94710700
-9.78301389,0.92952630,1.98815800,1.96053600
-9.78101389,0.93227320,2.00158700,1.98190100
-9.77901389,0.93502010,2.01776300,1.99533000
-9.77701389,0.93776700,2.03134500,2.00616500
-9.77501389,0.94036140,2.04218000,2.02218900
-9.77301389,0.94310830,2.04218000,2.03561800
-9.77101389,0.94585520,2.06644500,2.05179500
-9.76901389,0.94585520,2.08262100,2.05713600
-9.76701389,0.95134900,2.09879700,2.07590700
-9.76501389,0.95134900,2.10688600,2.08933600
-9.76301389,0.95394330,2.11512600,2.09742400
-9.76101389,0.95669030,2.12580900,2.10551200
-9.75901389,0.95943720,2.13130300,2.11619400
-9.75701389,0.95943720,2.14473200,2.12428300
-9.75501389,0.95943720,2.15022600,2.13771200
-9.75301389,0.96218410,2.16090800,2.14305300
-9.75101389,0.96477840,2.16365500,2.14839500
-9.74901389,0.96477840,2.17449000,2.15923000
-9.74701389,0.96752530,2.17983200,2.16182400
-9.74501389,0.96477840,2.17983200,2.16731800
-9.74301389,0.96752530,2.11512600,2.16991200
-9.74101389,0.96752530,2.18792000,2.17265900
-9.73901389,0.97027220,2.19616000,2.17800000
-9.73701389,0.96752530,2.19066600,2.18074700
-9.73501389,0.96752530,2.19875500,2.18608800
-9.73301389,0.96752530,2.19066600,2.18868300
-9.73101389,0.97027220,2.20150200,2.19143000
-9.72901389,0.97027220,2.20684300,2.18868300
-9.72701389,0.96752530,2.22851300,2.19143000
-9.72501389,0.96752530,2.20684300,2.19417600
-9.72301389,0.96752530,2.20959000,2.19677100
-9.72101389,0.96752530,2.21493100,2.19951800
-9.71901389,0.96477840,2.20959000,2.19951800
-9.71701389,0.96477840,2.20959000,2.19951800
-9.71501389,0.96218410,2.20424800,2.19677100
-9.71301389,0.96218410,2.20959000,2.19951800
-9.71101389,0.96218410,2.20150200,2.19677100
-9.70901389,0.95943720,2.20684300,2.19677100
-9.70701389,0.95394330,2.20684300,2.19951800
-9.70501389,0.95669030,2.20684300,2.19951800
-9.70301389,0.94860210,2.18532500,2.19951800
-9.70101389,0.95394330,2.20150200,2.19951800
-9.69901389,0.94860210,2.19341300,2.19143000
-9.69701389,0.94585520,2.12046800,2.18868300
-9.69501389,0.94310830,2.19066600,2.18074700
-9.69301389,0.94310830,2.18792000,2.17800000
-9.69101389,0.93776700,2.17983200,2.17265900
-9.68901389,0.93502010,2.17449000,2.17265900
-9.68701389,0.93227320,2.17449000,2.16182400
-9.68501389,0.92952630,2.15831400,2.15923000
-9.68301389,0.92418500,2.15282000,2.15114100
-9.68101389,0.92143820,2.16640200,2.14305300
-9.67901389,0.91869120,2.13664400,2.13496500
-9.67701389,0.91609690,2.12580900,2.12703000
-9.67501389,0.91060310,2.12580900,2.12153600
-9.67301389,0.90526190,2.11237900,2.11360000
-9.67101389,0.90251490,2.10963200,2.10551200
-9.66901389,0.89702110,2.09879700,2.09742400
-9.66701389,0.89442680,2.09345600,2.08674100
-9.66501389,0.88893290,2.07987400,2.07590700
-9.66301389,0.88359170,2.06919200,2.06781800
-9.66101389,0.87809790,2.06369800,2.05713600
-9.65901389,0.87809790,2.05026900,2.05179500
-9.65701389,0.87000980,2.12580900,2.04096000
-9.65501389,0.86726280,2.03134500,2.03027700
-9.65301389,0.86176900,2.01776300,2.01959500
-9.65101389,0.85093390,1.99884000,2.00616500
-9.64901389,0.84833960,1.99349900,1.99533000
-9.64701389,0.84284580,1.97991700,1.98190100
-9.64501389,0.83475760,1.97182900,1.97121800
-9.64301389,0.82926380,1.95565200,1.96053600
-9.64101389,0.82666950,1.94481700,1.94710700
-9.63901389,0.81842880,1.92864100,1.93367700
-9.63701389,0.81034060,1.91780600,1.92024800
-9.63501389,0.80759370,1.86927700,1.90681800
-9.63301389,0.79950550,1.88545300,1.88789500
-9.63101389,0.79401170,1.87187200,1.87446600
-9.62901389,0.78592350,1.85844200,1.86103600
-9.62701389,0.78058230,1.84226600,1.84501300
-9.62501389,0.77234160,1.81784900,1.83158300
-9.62301389,0.76425340,1.80976100,1.81281300
-9.62101389,0.75616530,1.78824300,1.79938300
-9.61901389,0.75067140,1.78015500,1.78046000
-9.61701389,0.74533020,1.75848500,1.76703100
-9.61501389,0.73449520,1.74765000,1.75100700
-9.61301389,0.73174820,1.73147400,1.73483100
-9.61101389,0.71816630,1.62617500,1.72414800
-9.60901389,0.71541940,1.69637400,1.70537800
-9.60701389,0.70733120,1.67211000,1.68386000
-9.60501389,0.69924310,1.68279200,1.66234300
-9.60301389,0.68840800,1.63685800,1.64616600
-9.60101389,0.68291410,1.62342800,1.62739600
-9.59901389,0.67482600,1.60450500,1.60862500
-9.59701389,0.66673790,1.58558200,1.58985500
-9.59501389,0.65315590,1.56131700,1.57108400
-9.59301389,0.64766200,1.54773500,1.54956700
-9.59101389,0.64232080,1.52347100,1.53079600
-9.58901389,0.62873890,1.52347100,1.51202500
-9.58701389,0.62324500,1.48287700,1.49050800
-9.58501389,0.61515690,1.46136000,1.47173700
-9.58301389,0.60432180,1.44243700,1.45281400
-9.58101389,0.59623370,1.42626000,1.43404300
-9.57901389,0.58814550,1.40184300,1.41527300
-9.57701389,0.57456360,1.38032600,1.39375500
-9.57501389,0.56906970,1.35865600,1.37223800
-9.57301389,0.55823460,1.33973300,1.34812600
-9.57101389,0.55014650,1.31821500,1.32660800
-9.56901389,0.54205830,1.29929200,1.30509100
-9.56701389,0.53122330,1.28036900,1.28632000
-9.56501389,0.53931140,1.12913600,1.26220800
-9.56301389,0.51214750,1.23443400,1.24069100
-9.56101389,0.50131240,1.20742300,1.22192000
-9.55901389,0.49322430,1.21017000,1.19231500
-9.55701389,0.48238920,1.15874100,1.17354400
-9.55501389,0.47155410,1.14531200,1.14943200
-9.55301389,0.46346600,1.11830100,1.12791500
-9.55101389,0.45263090,1.09937700,1.10639700
-9.54901389,0.44439020,1.07511300,1.08228500
-9.54701389,0.43080820,1.05619000,1.06076800
-9.54501389,0.41997310,1.02917800,1.03665600
-9.54301389,0.41188500,0.99667320,1.01239200
-9.54101389,0.40104990,0.98324380,0.98827980
-9.53901389,0.39021490,0.95882670,0.96950920
-9.53701389,0.37937980,0.93730920,0.94524480
-9.53501389,0.37129170,0.91289220,0.92372730
-9.53301389,0.35770970,0.89137460,0.89961540
-9.53101389,0.34687460,0.86436330,0.87809790
-9.52901389,0.33878650,0.84269320,0.85398610
-9.52701389,0.32795140,0.81568180,0.82438040
-9.52501389,0.31711630,0.79416430,0.80026860
-9.52301389,0.30887560,0.76440600,0.77875110
-9.52101389,0.29529360,0.75082410,0.75463920
-9.51901389,0.28445850,0.72930650,0.73586860
-9.51701389,0.27362350,0.69680140,0.70900990
-9.51501389,0.26278840,0.68062510,0.68474540
-9.51301389,0.25470030,0.67528380,0.65788670
-9.51101389,0.24111830,0.62934930,0.63636920
-9.50901389,0.22753630,0.60233790,0.61225740
-9.50701389,0.21944820,0.58341470,0.58814550
-9.50501389,0.20861310,0.55640330,0.56662800
-9.50301389,0.19503110,0.54282140,0.54236360
-9.50101389,0.18419610,0.50512750,0.51825170
-9.49901389,0.17610790,0.48345740,0.49413990
-9.49701389,0.16252590,0.47536930,0.46728120
-9.49501389,0.15443780,0.43752290,0.44301670
-9.49301389,0.14085580,0.41585280,0.41890490
-9.49101389,0.13276770,0.39433520,0.39738740
-9.48901389,0.12193260,0.37007080,0.37327550
-9.48701389,0.10835060,0.34305950,0.35175800
-9.48501389,0.10026250,0.31864240,0.32489930
-9.48301389,0.08668050,0.29437800,0.29804050
-9.48101389,0.07584544,0.26736660,0.27652300
-9.47901389,0.06501038,0.24569650,0.24966430
-9.47701389,0.05417531,0.22417900,0.22814670
-9.47501389,0.04334025,0.19716760,0.20678180
-9.47301389,0.03509950,0.17824440,0.17992310
-9.47101389,0.02167013,0.15123310,0.16099990
-9.46901389,0.00808815,0.12681600,0.13154680
-9.46701389,-0.00274692,0.06745208,0.10468810
-9.46501389,-0.01098767,0.07828714,0.08591747
-9.46301389,-0.02182273,0.05661702,0.05905872
-9.46101389,-0.03265779,0.02960566,0.03479429
-9.45901389,-0.04608717,0.01068246,0.01327677
-9.45701389,-0.05432792,-0.02975827,-0.01083506
-9.45501389,-0.06516299,-0.03525211,-0.03235258
-9.45301389,-0.07599805,-0.06226346,-0.05646441
-9.45101389,-0.08958003,-0.08378097,-0.08057624
-9.44901389,-0.09766817,-0.10819800,-0.10484070
-9.44701389,-0.10850320,-0.13246250,-0.12895250
-9.44501389,-0.11933830,-0.15398000,-0.15321690
-9.44301389,-0.13292030,-0.18099130,-0.17732880
-9.44101389,-0.14100840,-0.19457330,-0.20144060
-9.43901389,-0.15184350,-0.22433160,-0.22295810
-9.43701389,-0.16267850,-0.25668420,-0.24447560
-9.43501389,-0.17076670,-0.27286050,-0.27133440
-9.43301389,-0.18434870,-0.30536570,-0.29819310
-9.43101389,-0.19258940,-0.31345380,-0.31696370
-9.42901389,-0.20342450,-0.34046510,-0.34122820
-9.42701389,-0.21425950,-0.36472960,-0.36259310
-9.42501389,-0.22234770,-0.39174090,-0.38411060
-9.42301389,-0.23592970,-0.41066410,-0.40822240
-9.42101389,-0.24401780,-0.52954460,-0.43248690
-9.41901389,-0.25485290,-0.45934560,-0.45934560
-9.41701389,-0.26568790,-0.47552190,-0.47811620
-9.41501389,-0.27926990,-0.49978630,-0.50222800
-9.41301389,-0.28735810,-0.51870950,-0.52115120
-9.41101389,-0.29544620,-0.53229150,-0.54801000
-9.40901389,-0.30368700,-0.56998530,-0.56937490
-9.40701389,-0.31452200,-0.58890860,-0.59089240
-9.40501389,-0.32535710,-0.61866680,-0.61515690
-9.40301389,-0.33344530,-0.64033690,-0.63926870
-9.40101389,-0.34428030,-0.65651320,-0.66078620
-9.39901389,-0.35236840,-0.68077770,-0.68230370
-9.39701389,-0.36060920,-0.69695400,-0.70366870
-9.39501389,-0.37403860,-0.72671220,-0.72518620
-9.39301389,-0.38227930,-0.74288850,-0.74670370
-9.39101389,-0.39311440,-0.76989990,-0.76822120
-9.38901389,-0.40120250,-0.78073500,-0.79233300
-9.38701389,-0.40929070,-0.80774630,-0.81385060
-9.38501389,-0.41753140,-0.82666950,-0.83536810
-9.38301389,-0.42836650,-0.85093390,-0.85413870
-9.38101389,-0.43370770,-0.87260410,-0.87825050
-9.37901389,-0.44454280,-0.88878040,-0.89702110
-9.37701389,-0.45537780,-0.91045050,-0.92128560
-9.37501389,-0.45812480,-0.86176900,-0.94280310
-9.37301389,-0.47170670,-0.95638500,-0.96416800
-9.37101389,-0.47704800,-0.97256140,-0.98034430
-9.36901389,-0.48788300,-0.99148450,-0.99911490
-9.36701389,-0.49612380,-1.00491400,-1.01788500
-9.36501389,-0.50421190,-1.06977200,-1.03940300
-9.36301389,-0.51230010,-1.04825400,-1.05557900
-9.36101389,-0.52054080,-1.07251900,-1.07709700
-9.35901389,-0.52588210,-1.06977200,-1.09846200
-9.35701389,-0.53671710,-1.11036500,-1.11738500
-9.35501389,-0.54221090,-1.12379400,-1.13340900
-9.35301389,-0.55304600,-1.13997100,-1.15217900
-9.35101389,-0.55838720,-1.15355300,-1.16835500
-9.34901389,-0.56388110,-1.16972900,-1.18437900
-9.34701389,-0.57471620,-1.18590500,-1.20055500
-9.34501389,-0.58005740,-1.21291700,-1.21673200
-9.34301389,-0.59089240,-1.22100500,-1.23275500
-9.34101389,-0.59363940,-1.23992800,-1.24618500
-9.33901389,-0.59913320,-1.24801600,-1.26236100
-9.33701389,-0.60996820,-1.25885100,-1.27838500
-9.33501389,-0.61256250,-1.28052100,-1.28922000
-9.33301389,-0.62080330,-1.28586300,-1.29990200
-9.33101389,-0.62614450,-1.30478600,-1.31867300
-9.32901389,-0.64247350,-1.31836800,-1.34019000
-9.32701389,-0.64247350,-1.33179700,-1.35102500
-9.32501389,-0.64247350,-1.34263200,-1.36445500
-9.32301389,-0.65056160,-1.35346700,-1.37513700
-9.32101389,-0.65864970,-1.36155500,-1.38856700
-9.31901389,-0.66689050,-1.40474300,-1.39665500
-9.31701389,-0.66948480,-1.38856700,-1.41008400
-9.31501389,-0.67497860,-1.40199600,-1.41817200
-9.31301389,-0.68031980,-1.43450100,-1.43160200
-9.31101389,-0.68581370,-1.41832500,-1.44228400
-9.30901389,-0.69115490,-1.42366600,-1.44762500
-9.30701389,-0.69664880,-1.43450100,-1.45037200
-9.30501389,-0.69939570,-1.43175400,-1.45571400
-9.30301389,-0.70748380,-1.43984200,-1.46105500
-9.30101389,-0.71023070,-1.44533600,-1.46380200
-9.29901389,-0.71557190,-1.44793100,-1.47448400
-9.29701389,-0.71831890,-1.45601900,-1.47723100
-9.29501389,-0.72106580,-1.45876600,-1.48531900
-9.29301389,-0.72915390,-1.45342400,-1.48257200
-9.29101389,-0.73190090,-1.45067800,-1.47982500
-9.28901389,-0.73190090,-1.44533600,-1.47189000
-9.28701389,-0.73724210,-1.43450100,-1.46105500
-9.28501389,-0.74273590,-1.42091900,-1.44762500
-9.28301389,-0.74273590,-1.54788800,-1.42610800
-9.28101389,-0.74807720,-1.37498500,-1.40474300
-9.27901389,-0.75357100,-1.34263200,-1.37513700
-9.27701389,-0.75906480,-1.30753300,-1.33210200
-9.27501389,-0.76165910,-1.25885100,-1.28922000
-9.27301389,-0.76440600,-1.24542200,-1.24359000
-9.27101389,-0.76715300,-1.18590500,-1.20589700
-9.26901389,-0.76989990,-1.15355300,-1.17644400
-9.26701389,-0.77249420,-1.11570600,-1.14958500
-9.26501389,-0.77524110,-1.09678300,-1.12532000
-9.26301389,-0.77798800,-1.06977200,-1.09846200
-9.26101389,-0.77798800,-1.04825400,-1.07969100
-9.25901389,-0.78073500,-1.03467200,-1.06092000
-9.25701389,-0.78607620,-1.01574900,-1.03940300
-9.25501389,-0.78607620,-0.99148450,-1.02063200
-9.25301389,-0.78882310,-0.98339640,-1.00720300
-9.25101389,-0.78882310,-0.98064950,-0.99911490
-9.24901389,-0.78882310,-0.95363810,-0.98843240
-9.24701389,-0.79157000,-0.94280310,-0.97500310
-9.24501389,-0.79416430,-0.93746190,-0.96691490
-9.24301389,-0.79416430,-0.93471490,-0.96157370
-9.24101389,-0.79416430,-0.91853860,-0.95348550
-9.23901389,-0.79416430,-0.91853860,-0.94539740
-9.23701389,-0.79691120,-0.88069220,-0.94005610
-9.23501389,-0.79691120,-0.90495660,-0.94005610
-9.23301389,-0.79416430,-0.90495660,-0.93471490
-9.23101389,-0.79416430,-0.90236230,-0.92937370
-9.22901389,-0.79416430,-0.89686850,-0.92937370
-9.22701389,-0.78332920,-0.93471490,-0.92387990
-9.22501389,-0.79157000,-0.89152730,-0.92128560
-9.22301389,-0.79157000,-0.88603340,-0.91594430
-9.22101389,-0.79157000,-0.88603340,-0.91045050
-9.21901389,-0.79416430,-0.87794530,-0.90785620
-9.21701389,-0.79157000,-0.86726280,-0.90251490
-9.21501389,-0.78882310,-0.86451590,-0.89702110
-9.21301389,-0.78882310,-0.85642780,-0.89442680
-9.21101389,-0.78332920,-0.85902210,-0.89167990
-9.20901389,-0.78332920,-0.85368080,-0.88908560
-9.20701389,-0.78332920,-0.85642780,-0.88908560
-9.20501389,-0.78073500,-0.85093390,-0.88359170
-9.20301389,-0.78073500,-0.84025150,-0.87825050
-9.20101389,-0.77524110,-0.83201070,-0.87016240
-9.19901389,-0.77524110,-0.82392260,-0.86482110
-9.19701389,-0.76989990,-0.82666950,-0.86222680
-9.19501389,-0.76989990,-0.81858130,-0.85413870
-9.19301389,-0.76440600,-0.81324010,-0.84879740
-9.19101389,-0.76165910,-0.79965820,-0.84330360
-9.18901389,-0.75906480,-0.79691120,-0.83536810
-9.18701389,-0.75906480,-0.78622880,-0.82727990
-9.18501389,-0.75357100,-0.78622880,-0.82193870
-9.18301389,-0.75082410,-0.77539370,-0.81385060
-9.18101389,-0.75357100,-0.73754730,-0.80850930
-9.17901389,-0.74548290,-0.76455870,-0.80042120
-9.17701389,-0.73724210,-0.75921740,-0.79767420
-9.17501389,-0.73190090,-0.78622880,-0.78958610
-9.17301389,-0.73464780,-0.74563540,-0.78424490
-9.17101389,-0.72640710,-0.74029420,-0.77890370
-9.16901389,-0.72381270,-0.73480040,-0.77081550
-9.16701389,-0.71831890,-0.72137100,-0.76547430
-9.16501389,-0.71023070,-0.72396530,-0.75738610
-9.16301389,-0.71023070,-0.70244780,-0.74670370
-9.16101389,-0.70748380,-0.69435970,-0.73861550
-9.15901389,-0.70214260,-0.70778900,-0.73052740
-9.15701389,-0.69390180,-0.67803070,-0.72518620
-9.15501389,-0.68856060,-0.66994260,-0.71709800
-9.15301389,-0.68306680,-0.65926020,-0.70641560
-9.15101389,-0.68031980,-0.65926020,-0.69832740
-9.14901389,-0.67497860,-0.64567820,-0.69298620
-9.14701389,-0.67223170,-0.64293130,-0.68230370
-9.14501389,-0.66414360,-0.63224880,-0.67680990
-9.14301389,-0.65864970,-0.62141370,-0.66887440
-9.14101389,-0.64781470,-0.61332560,-0.66078620
