Frequency,Channel A,Channel B,Channel C
(ms),(V),(V),(V)

-2.50150681,0.01428397,0.06031010,0.09260163
-2.50050681,0.00769137,0.05042119,0.08167501
-2.49950681,0.00109877,0.03839580,0.07080942
-2.49850681,-0.00335734,0.02850690,0.06098156
-2.49750681,-0.01104871,0.01751923,0.04895617
-2.49650681,-0.01654255,0.00653156,0.04022708
-2.49550681,-0.02203638,-0.00439507,0.02826273
-2.49450681,-0.02753022,-0.01538274,0.01843487
-2.49350681,-0.03522158,-0.02527164,0.00860701
-2.49250681,-0.04077646,-0.03516054,-0.00225858
-2.49150681,-0.04736906,-0.04498840,-0.01208644
-2.49050681,-0.05286290,-0.05707484,-0.02411183
-2.48950681,-0.06055427,-0.06586497,-0.03284092
-2.48850681,-0.06604810,-0.07465511,-0.04370651
-2.48750681,-0.07154194,-0.08777927,-0.05573190
-2.48650681,-0.07703577,-0.09766817,-0.06555976
-2.48550681,-0.08368941,-0.10755710,-0.07532658
-2.48450681,-0.08918325,-0.11744600,-0.08625320
-2.48350681,-0.09577585,-0.12843360,-0.09717983
-2.48250681,-0.10236850,-0.13936030,-0.10804540
-2.48150681,-0.10896110,-0.14815040,-0.11787330
-2.48050681,-0.11335610,-0.15913810,-0.12770110
-2.47950681,-0.12110850,-0.17012580,-0.13862780
-2.47850681,-0.12660240,-0.17995360,-0.14949330
-2.47750681,-0.13209620,-0.18984250,-0.15932120
-2.47650681,-0.13759000,-0.19863260,-0.17024780
-2.47550681,-0.14528140,-0.21071910,-0.18007570
-2.47450681,-0.15077520,-0.22054690,-0.19094130
-2.47350681,-0.15742890,-0.22933710,-0.20186790
-2.47250681,-0.16292270,-0.24142350,-0.21059700
-2.47150681,-0.16731780,-0.25131240,-0.22042490
-2.47050681,-0.17391040,-0.26114030,-0.23129040
-2.46950681,-0.18270050,-0.27212790,-0.24331580
-2.46850681,-0.18929310,-0.27981930,-0.25204490
-2.46750681,-0.19258940,-0.29190580,-0.26187280
-2.46650681,-0.19924310,-0.30283240,-0.27054080
-2.46550681,-0.20583570,-0.31162250,-0.28256620
-2.46450681,-0.21023070,-0.32261020,-0.29129530
-2.46350681,-0.21682330,-0.33030160,-0.30222200
-2.46250681,-0.22451470,-0.34238800,-0.31308750
-2.46150681,-0.22890980,-0.35221580,-0.32181660
-2.46050681,-0.23666220,-0.36210470,-0.33274330
-2.45950681,-0.24105720,-0.37309240,-0.34360880
-2.45850681,-0.24874860,-0.38188250,-0.35343670
-2.45750681,-0.25424240,-0.39061160,-0.36326460
-2.45650681,-0.25863750,-0.40159930,-0.37419120
-2.45550681,-0.26413140,-0.41038950,-0.38292030
-2.45450681,-0.27182270,-0.42137710,-0.39268710
-2.45350681,-0.27737760,-0.43126600,-0.40251490
-2.45250681,-0.28287140,-0.44109390,-0.41234280
-2.45150681,-0.28946410,-0.45098280,-0.42326950
-2.45050681,-0.29385910,-0.45977290,-0.43309730
-2.44950681,-0.29935290,-0.47076060,-0.44176530
-2.44850681,-0.30594550,-0.47839090,-0.45159320
-2.44750681,-0.31150040,-0.48937860,-0.46251980
-2.44650681,-0.31809300,-0.49926750,-0.47234770
-2.44550681,-0.32248810,-0.50805760,-0.48107680
-2.44450681,-0.32908070,-0.51898430,-0.49194240
-2.44350681,-0.33457450,-0.52667560,-0.50177030
-2.44250681,-0.34006840,-0.53766330,-0.51049930
-2.44150681,-0.34775970,-0.54535470,-0.52032720
-2.44050681,-0.35221580,-0.55634230,-0.53015510
-2.43950681,-0.35880850,-0.56617020,-0.53992190
-2.43850681,-0.36320350,-0.57496030,-0.54974970
-2.43750681,-0.36979610,-0.58484920,-0.55738000
-2.43650681,-0.37638870,-0.59144180,-0.56720790
-2.43550681,-0.37968500,-0.60133070,-0.57703580
-2.43450681,-0.38627760,-0.61005980,-0.58576490
-2.43350681,-0.39293130,-0.61884990,-0.59559270
-2.43250681,-0.39842510,-0.62873890,-0.60212430
-2.43150681,-0.40501770,-0.63752900,-0.61195210
-2.43050681,-0.40941280,-0.64631920,-0.62062020
-2.42950681,-0.41490660,-0.65394940,-0.62831160
-2.42850681,-0.42040040,-0.66273960,-0.63484310
-2.42750681,-0.42699300,-0.67043100,-0.64357220
-2.42650681,-0.43254790,-0.67592480,-0.65120260
-2.42550681,-0.43694300,-0.68471490,-0.66103040
-2.42450681,-0.44243680,-0.69130750,-0.66646320
-2.42350681,-0.44902940,-0.69674030,-0.67409350
-2.42250681,-0.45342450,-0.70443170,-0.68172380
-2.42150681,-0.45891830,-0.71212300,-0.68715660
-2.42050681,-0.46551090,-0.71871570,-0.69374920
-2.41950681,-0.46996700,-0.72640710,-0.70137950
-2.41850681,-0.47436210,-0.73080210,-0.70791110
-2.41750681,-0.48315220,-0.73953120,-0.71664020
-2.41650681,-0.48754730,-0.74502500,-0.72097420
-2.41550681,-0.49304110,-0.74942010,-0.72646810
-2.41450681,-0.49633740,-0.75601270,-0.73299960
-2.41350681,-0.50183130,-0.76150650,-0.73733370
-2.41250681,-0.50958370,-0.76700040,-0.74606280
-2.41150681,-0.51397870,-0.77359290,-0.75045780
-2.41050681,-0.51947260,-0.78012450,-0.75589060
-2.40950681,-0.52276890,-0.78342080,-0.75912580
-2.40850681,-0.52936150,-0.78671710,-0.76352100
-2.40750681,-0.53375660,-0.79221090,-0.76785490
-2.40650681,-0.54034910,-0.79330970,-0.77225000
-2.40550681,-0.54480530,-0.79770480,-0.77548530
-2.40450681,-0.55139790,-0.80209980,-0.77988030
-2.40350681,-0.55579290,-0.80539610,-0.78421440
-2.40250681,-0.56128670,-0.80759370,-0.78751070
-2.40150681,-0.56568180,-0.81418630,-0.79184470
-2.40050681,-0.57117570,-0.81858130,-0.79514100
-2.39950681,-0.57776830,-0.82291540,-0.80167260
-2.39850681,-0.58216330,-0.82511290,-0.80606760
-2.39750681,-0.58661940,-0.83170550,-0.81040170
-2.39650681,-0.59211330,-0.83390310,-0.81589550
-2.39550681,-0.59760710,-0.83939690,-0.81803200
-2.39450681,-0.59980460,-0.84269320,-0.82242700
-2.39350681,-0.60529850,-0.84818700,-0.82785980
-2.39250681,-0.61079230,-0.85038450,-0.83115610
-2.39150681,-0.61738490,-0.85368080,-0.83549020
-2.39050681,-0.62068120,-0.85807590,-0.83658890
-2.38950681,-0.62623610,-0.86137220,-0.84202170
-2.38850681,-0.62953240,-0.86247100,-0.84202170
-2.38750681,-0.63612500,-0.86680500,-0.84531800
-2.38650681,-0.64052010,-0.86460750,-0.84861430
-2.38550681,-0.64381640,-0.86900260,-0.84861430
-2.38450681,-0.65150770,-0.87010130,-0.85075080
-2.38350681,-0.65260650,-0.87120010,-0.85294840
-2.38250681,-0.66029790,-0.87559520,-0.85624460
-2.38150681,-0.66145770,-0.87669390,-0.85838120
-2.38050681,-0.66805030,-0.88108900,-0.86167740
-2.37950681,-0.67354410,-0.88438530,-0.86601140
-2.37850681,-0.67684040,-0.88658290,-0.87040650
-2.37750681,-0.68123550,-0.89207670,-0.87260410
-2.37650681,-0.68672930,-0.89427420,-0.87803690
-2.37550681,-0.69002560,-0.89647170,-0.88133320
-2.37450681,-0.69332190,-0.89976800,-0.88346960
-2.37350681,-0.69997560,-0.90306430,-0.88676600
-2.37250681,-0.70327190,-0.90526190,-0.89110000
-2.37150681,-0.70656820,-0.90959590,-0.89329750
-2.37050681,-0.71316080,-0.91179340,-0.89549510
-2.36950681,-0.71645710,-0.91508970,-0.89769260
-2.36850681,-0.72195090,-0.91728720,-0.90092780
-2.36750681,-0.72414850,-0.91948480,-0.90202660
-2.36650681,-0.72964230,-0.92168230,-0.90422420
-2.36550681,-0.73293860,-0.92168230,-0.90745940
-2.36450681,-0.73849340,-0.92497860,-0.90855810
-2.36350681,-0.74069100,-0.92717620,-0.91185440
-2.36250681,-0.74508610,-0.92827490,-0.91405200
-2.36150681,-0.74838230,-0.93157120,-0.91618850
-2.36050681,-0.75387620,-0.93486750,-0.91838600
-2.35950681,-0.75717250,-0.93596630,-0.92058350
-2.35850681,-0.76046880,-0.93926260,-0.92601630
-2.35750681,-0.76596260,-0.94365760,-0.92821390
-2.35650681,-0.76816020,-0.94915150,-0.93474540
-2.35550681,-0.77475270,-0.95348550,-0.93694300
-2.35450681,-0.77811010,-0.95568310,-0.94347450
-2.35350681,-0.78030770,-0.96117690,-0.94670980
-2.35250681,-0.78580150,-0.96557190,-0.95110490
-2.35150681,-0.78799900,-0.96996700,-0.95543890
-2.35050681,-0.79239410,-0.97436210,-0.96093270
-2.34950681,-0.79678920,-0.97985590,-0.96746430
-2.34850681,-0.80008540,-0.98315220,-0.97179830
-2.34750681,-0.80118420,-0.98864600,-0.97509460
-2.34650681,-0.80777680,-0.99304120,-0.97942860
-2.34550681,-0.80887560,-0.99517760,-0.98162620
-2.34450681,-0.81436940,-0.99737510,-0.98602120
-2.34350681,-0.81882550,-0.99957270,-0.98815770
-2.34250681,-0.82102300,-1.00286900,-0.99145400
-2.34150681,-0.82322060,-1.00396800,-0.99255280
-2.34050681,-0.82761570,-1.00616500,-0.99578800
-2.33950681,-0.82981320,-1.00836300,-0.99688680
-2.33850681,-0.83310950,-1.01056000,-1.00018300
-2.33750681,-0.83640580,-1.01495500,-1.00238100
-2.33650681,-0.84080090,-1.01715300,-1.00671500
-2.33550681,-0.84409710,-1.02154800,-1.01111000
-2.33450681,-0.84629470,-1.02484400,-1.01324600
-2.33350681,-0.84849230,-1.02923900,-1.01764100
-2.33250681,-0.85178850,-1.03143700,-1.02087700
-2.33150681,-0.85398610,-1.03583200,-1.02527200
-2.33050681,-0.85844220,-1.04016600,-1.03070400
-2.32950681,-0.86283730,-1.04236400,-1.03400100
-2.32850681,-0.86503480,-1.04566000,-1.03833500
-2.32750681,-0.86833110,-1.04785700,-1.03943300
-2.32650681,-0.86942980,-1.05115400,-1.04382900
-2.32550681,-0.87162740,-1.05554900,-1.04486600
-2.32450681,-0.87492370,-1.05664800,-1.04816300
-2.32350681,-0.88041750,-1.05994400,-1.05145900
-2.32250681,-0.88041750,-1.06214100,-1.05689200
-2.32150681,-0.88481260,-1.06653600,-1.05689200
-2.32050681,-0.88701010,-1.06873400,-1.06232500
-2.31950681,-0.89030640,-1.07203000,-1.06452200
-2.31850681,-0.89360270,-1.07422800,-1.06672000
-2.31750681,-0.89360270,-1.07642500,-1.06891700
-2.31650681,-0.89805880,-1.07752400,-1.07435000
-2.31550681,-0.89915760,-1.08075900,-1.07325100
-2.31450681,-0.90245390,-1.08295700,-1.07758500
-2.31350681,-0.90575020,-1.08515400,-1.08088100
-2.31250681,-0.90684900,-1.08625300,-1.08307900
-2.31150681,-0.90904650,-1.08845100,-1.08417800
-2.31050681,-0.91344150,-1.09064800,-1.08741300
-2.30950681,-0.91344150,-1.09284600,-1.08631400
-2.30850681,-0.91673790,-1.09504300,-1.09070900
-2.30750681,-0.91783670,-1.09834000,-1.09394500
-2.30650681,-0.92113290,-1.09834000,-1.09394500
-2.30550681,-0.92113290,-1.10163600,-1.09834000
-2.30450681,-0.92442920,-1.10273500,-1.09943800
-2.30350681,-0.92662680,-1.10493200,-1.10157500
-2.30250681,-0.92992310,-1.10822900,-1.10487100
-2.30150681,-0.92992310,-1.11042600,-1.10597000
-2.30050681,-0.93328040,-1.11262400,-1.11030400
-2.29950681,-0.93547800,-1.11482100,-1.11250200
-2.29850681,-0.93657670,-1.11811700,-1.11469900
-2.29750681,-0.93987300,-1.12141400,-1.11793400
-2.29650681,-0.93987300,-1.12251200,-1.12123100
-2.29550681,-0.94207050,-1.12464900,-1.12232900
-2.29450681,-0.94207050,-1.12684700,-1.12452700
-2.29350681,-0.94536690,-1.12794500,-1.12666300
-2.29250681,-0.94756440,-1.13014300,-1.12886100
-2.29150681,-0.94976190,-1.13124200,-1.13105800
-2.29050681,-0.94976190,-1.13343900,-1.13325600
-2.28950681,-0.95195940,-1.13343900,-1.13325600
-2.28850681,-0.95415700,-1.13673500,-1.13429400
-2.28750681,-0.95525570,-1.13673500,-1.13649100
-2.28650681,-0.95525570,-1.14003200,-1.13868900
-2.28550681,-0.95965080,-1.14003200,-1.14088600
-2.28450681,-0.95855210,-1.14332800,-1.14088600
-2.28350681,-0.96074960,-1.14332800,-1.14522000
-2.28250681,-0.96074960,-1.14442700,-1.14631900
-2.28150681,-0.96184840,-1.14552600,-1.14631900
-2.28050681,-0.96404590,-1.14662400,-1.14851700
-2.27950681,-0.96624340,-1.14662400,-1.14851700
-2.27850681,-0.96624340,-1.14772300,-1.14851700
-2.27750681,-0.96953970,-1.14882200,-1.14961500
-2.27650681,-0.96844090,-1.14882200,-1.15065300
-2.27550681,-0.97063850,-1.14992100,-1.15175200
-2.27450681,-0.97179830,-1.15101900,-1.15394900
-2.27350681,-0.97289710,-1.15321700,-1.15614700
-2.27250681,-0.97399580,-1.15761200,-1.16048100
-2.27150681,-0.97289710,-1.15871100,-1.16377700
-2.27050681,-0.97289710,-1.16200700,-1.16377700
-2.26950681,-0.97399580,-1.15981000,-1.16377700
-2.26850681,-0.97729210,-1.15981000,-1.16487600
-2.26750681,-0.97619340,-1.16200700,-1.16597500
-2.26650681,-0.97619340,-1.16200700,-1.16597500
-2.26550681,-0.97839090,-1.16200700,-1.16701300
-2.26450681,-0.97948970,-1.15981000,-1.16487600
-2.26350681,-0.98058840,-1.15871100,-1.16267800
-2.26250681,-0.97839090,-1.15541400,-1.16048100
-2.26150681,-0.98058840,-1.15541400,-1.16048100
-2.26050681,-0.98168720,-1.15651300,-1.15938200
-2.25950681,-0.98168720,-1.15431600,-1.15938200
-2.25850681,-0.98058840,-1.15211800,-1.16048100
-2.25750681,-0.98058840,-1.15321700,-1.16048100
-2.25650681,-0.98168720,-1.15211800,-1.15724600
-2.25550681,-0.97948970,-1.15211800,-1.15724600
-2.25450681,-0.98278590,-1.15211800,-1.15834500
-2.25350681,-0.98278590,-1.15211800,-1.15938200
-2.25250681,-0.98278590,-1.15211800,-1.15834500
-2.25150681,-0.98278590,-1.15321700,-1.15834500
-2.25050681,-0.98278590,-1.15211800,-1.15938200
-2.24950681,-0.98168720,-1.15321700,-1.16048100
-2.24850681,-0.98168720,-1.15431600,-1.16048100
-2.24750681,-0.98498350,-1.15211800,-1.16048100
-2.24650681,-0.98388480,-1.15431600,-1.16377700
-2.24550681,-0.98388480,-1.15431600,-1.16158000
-2.24450681,-0.98278590,-1.15211800,-1.16048100
-2.24350681,-0.98498350,-1.15211800,-1.16048100
-2.24250681,-0.98168720,-1.15101900,-1.16048100
-2.24150681,-0.98168720,-1.14772300,-1.15834500
-2.24050681,-0.98278590,-1.14882200,-1.15614700
-2.23950681,-0.98168720,-1.14552600,-1.15614700
-2.23850681,-0.98278590,-1.14552600,-1.15504800
-2.23750681,-0.97948970,-1.14222900,-1.15285100
-2.23650681,-0.97839090,-1.14113000,-1.15175200
-2.23550681,-0.98058840,-1.14113000,-1.15065300
-2.23450681,-0.98058840,-1.14113000,-1.14961500
-2.23350681,-0.97839090,-1.13893300,-1.14851700
-2.23250681,-0.97839090,-1.13673500,-1.14961500
-2.23150681,-0.97948970,-1.13563700,-1.14631900
-2.23050681,-0.97619340,-1.13343900,-1.14522000
-2.22950681,-0.97509460,-1.13343900,-1.14198500
-2.22850681,-0.97509460,-1.13014300,-1.14198500
-2.22750681,-0.97509460,-1.12794500,-1.13978800
-2.22650681,-0.97399580,-1.12574800,-1.13649100
-2.22550681,-0.97179830,-1.12251200,-1.13539200
-2.22450681,-0.97399580,-1.12141400,-1.13325600
-2.22350681,-0.97179830,-1.11921600,-1.13105800
-2.22250681,-0.96953970,-1.11701900,-1.12996000
-2.22150681,-0.96844090,-1.11262400,-1.12562600
-2.22050681,-0.96624340,-1.11152500,-1.12342800
-2.21950681,-0.96734220,-1.11042600,-1.12123100
-2.21850681,-0.96514460,-1.10603100,-1.12013200
-2.21750681,-0.96514460,-1.10493200,-1.11793400
-2.21650681,-0.96514460,-1.10163600,-1.11579800
-2.21550681,-0.95965080,-1.09943800,-1.11360000
-2.21450681,-0.95855210,-1.09614200,-1.11140300
-2.21350681,-0.95745330,-1.09174700,-1.10926600
-2.21250681,-0.95745330,-1.09174700,-1.10706900
-2.21150681,-0.95525570,-1.08845100,-1.10487100
-2.21050681,-0.95635450,-1.08735200,-1.10157500
-2.20950681,-0.95415700,-1.08515400,-1.10053700
-2.20850681,-0.95305820,-1.08295700,-1.09834000
-2.20750681,-0.94866320,-1.08185800,-1.09724100
-2.20650681,-0.94976190,-1.08185800,-1.09504300
-2.20550681,-0.94536690,-1.07752400,-1.09394500
-2.20450681,-0.94426810,-1.07642500,-1.09070900
-2.20350681,-0.94426810,-1.07312900,-1.08851200
-2.20250681,-0.94426810,-1.07093100,-1.08851200
-2.20150681,-0.93987300,-1.06653600,-1.08521500
-2.20050681,-0.93767550,-1.06433900,-1.08198000
-2.19950681,-0.93767550,-1.05994400,-1.07868400
-2.19850681,-0.93437920,-1.05664800,-1.07435000
-2.19750681,-0.92992310,-1.05115400,-1.07105400
-2.19650681,-0.92992310,-1.04785700,-1.06672000
-2.19550681,-0.92882430,-1.04566000,-1.06342300
-2.19450681,-0.92662680,-1.04126500,-1.05908900
-2.19350681,-0.92552800,-1.03796900,-1.05469400
-2.19250681,-0.92333050,-1.03253600,-1.05255800
-2.19150681,-0.92223170,-1.03033800,-1.05036000
-2.19050681,-0.92003420,-1.02814100,-1.04596500
-2.18950681,-0.91563910,-1.02484400,-1.04273000
-2.18850681,-0.91344150,-1.02264700,-1.03943300
-2.18750681,-0.91124400,-1.02044900,-1.03723600
-2.18650681,-0.90904650,-1.01385700,-1.03400100
-2.18550681,-0.90684900,-1.01165900,-1.02960600
-2.18450681,-0.90355270,-1.00616500,-1.02746900
-2.18350681,-0.90245390,-1.00286900,-1.02197500
-2.18250681,-0.89915760,-0.99737510,-1.01764100
-2.18150681,-0.89696010,-0.99304120,-1.01214700
-2.18050681,-0.89360270,-0.98974480,-1.00891200
-2.17950681,-0.89140520,-0.98534980,-1.00561600
-2.17850681,-0.88810890,-0.98095470,-0.99908440
-2.17750681,-0.88701010,-0.97655960,-0.99578800
-2.17650681,-0.88261500,-0.97106580,-0.99255280
-2.17550681,-0.87931880,-0.96667080,-0.98815770
-2.17450681,-0.87822000,-0.96117690,-0.98272490
-2.17350681,-0.87382490,-0.95678180,-0.97942860
-2.17250681,-0.87272610,-0.95348550,-0.97399580
-2.17150681,-0.86942980,-0.94915150,-0.96966180
-2.17050681,-0.86723230,-0.94365760,-0.96636550
-2.16950681,-0.86393600,-0.94146010,-0.96203150
-2.16850681,-0.86063970,-0.93596630,-0.95763640
-2.16750681,-0.85734340,-0.92937370,-0.95330240
-2.16650681,-0.85398610,-0.92607740,-0.94780860
-2.16550681,-0.85068980,-0.91948480,-0.94347450
-2.16450681,-0.84959100,-0.91618850,-0.93694300
-2.16350681,-0.84519590,-0.91069470,-0.93254790
-2.16250681,-0.84299840,-0.90526190,-0.92821390
-2.16150681,-0.83970210,-0.90086680,-0.92272010
-2.16050681,-0.83530700,-0.89427420,-0.91838600
-2.15950681,-0.83091200,-0.88768160,-0.91185440
-2.15850681,-0.83091200,-0.88438530,-0.90855810
-2.15750681,-0.82541810,-0.87999020,-0.90312530
-2.15650681,-0.82212190,-0.87449640,-0.89873030
-2.15550681,-0.81772670,-0.87010130,-0.89439630
-2.15450681,-0.81436940,-0.86356970,-0.89000120
-2.15350681,-0.81217190,-0.86137220,-0.88346960
-2.15250681,-0.80887560,-0.85587840,-0.87913560
-2.15150681,-0.80448050,-0.85148330,-0.87364180
-2.15050681,-0.80118420,-0.84489070,-0.86711030
-2.14950681,-0.79678920,-0.83939690,-0.86277620
-2.14850681,-0.79459160,-0.83390310,-0.85838120
-2.14750681,-0.79019650,-0.82731040,-0.85404710
-2.14650681,-0.78580150,-0.82291540,-0.84751560
-2.14550681,-0.78250520,-0.81748260,-0.84312050
-2.14450681,-0.77920890,-0.81308750,-0.83768770
-2.14350681,-0.77695030,-0.80539610,-0.83329260
-2.14250681,-0.77255520,-0.80100110,-0.82785980
-2.14150681,-0.76816020,-0.79440850,-0.82022950
-2.14050681,-0.76706140,-0.79001340,-0.81589550
-2.13950681,-0.75937000,-0.78451960,-0.80930290
-2.13850681,-0.75717250,-0.78012450,-0.80606760
-2.13750681,-0.75167860,-0.77359290,-0.79953600
-2.13650681,-0.74728360,-0.76919790,-0.79294350
-2.13550681,-0.74508610,-0.76150650,-0.78860940
-2.13450681,-0.73959220,-0.75711140,-0.78317670
-2.13350681,-0.73513610,-0.75051890,-0.77658400
-2.13250681,-0.73183980,-0.74502500,-0.77225000
-2.13150681,-0.72854350,-0.73843240,-0.76461970
-2.13050681,-0.72304970,-0.73190090,-0.75912580
-2.12950681,-0.71865460,-0.72640710,-0.75259430
-2.12850681,-0.71425960,-0.72091320,-0.74826030
-2.12750681,-0.70986450,-0.71541940,-0.74172870
-2.12650681,-0.70656820,-0.70772800,-0.73733370
-2.12550681,-0.70217310,-0.70223410,-0.73080210
-2.12450681,-0.69661820,-0.69454280,-0.72427050
-2.12350681,-0.69112440,-0.69020870,-0.71987550
-2.12250681,-0.69002560,-0.68471490,-0.71334390
-2.12150681,-0.68453180,-0.67922110,-0.70681230
-2.12050681,-0.68123550,-0.67262850,-0.70137950
-2.11950681,-0.67574170,-0.66603590,-0.69478700
-2.11850681,-0.67024780,-0.65834450,-0.68825540
-2.11750681,-0.66695150,-0.65394940,-0.68392130
-2.11650681,-0.66145770,-0.64845560,-0.67842750
-2.11550681,-0.65700160,-0.64412160,-0.67189600
-2.11450681,-0.65150770,-0.63643020,-0.66646320
-2.11350681,-0.64821140,-0.63093640,-0.66103040
-2.11250681,-0.64271760,-0.62654130,-0.65443780
-2.11150681,-0.63832250,-0.62104750,-0.64900500
-2.11050681,-0.63502620,-0.61445490,-0.64357220
-2.10950681,-0.62843360,-0.60786230,-0.63807840
-2.10850681,-0.62293980,-0.60242950,-0.63154680
-2.10750681,-0.61848370,-0.59693560,-0.62611400
-2.10650681,-0.61518740,-0.59144180,-0.61958250
-2.10550681,-0.60969350,-0.58265170,-0.61518740
-2.10450681,-0.60529850,-0.57825660,-0.60865580
-2.10350681,-0.59870590,-0.57056520,-0.60322300
-2.10250681,-0.59431080,-0.56287390,-0.59559270
-2.10150681,-0.58881700,-0.55744110,-0.58900010
-2.10050681,-0.58552070,-0.55084850,-0.58246860
-2.09950681,-0.57996580,-0.54535470,-0.57813450
-2.09850681,-0.57337320,-0.53986080,-0.57050420
-2.09750681,-0.57117570,-0.53216950,-0.56501040
-2.09650681,-0.56568180,-0.52667560,-0.55738000
-2.09550681,-0.56128670,-0.52118180,-0.55414480
-2.09450681,-0.55469420,-0.51574900,-0.54651450
-2.09350681,-0.54920040,-0.51025520,-0.54211940
-2.09250681,-0.54590400,-0.50476130,-0.53668660
-2.09150681,-0.53925040,-0.49707000,-0.52795750
-2.09050681,-0.53375660,-0.49157610,-0.52252470
-2.08950681,-0.52826270,-0.48278600,-0.51703090
-2.08850681,-0.52167010,-0.47839090,-0.50940050
-2.08750681,-0.51617630,-0.47185930,-0.50286900
