Frequency,Channel A,Channel B,Channel C
(ms),(V),(V),(V)

-2.50199996,0.01758027,0.06360640,0.09479917
-2.50099996,0.00988890,0.05261873,0.08387254
-2.49999996,0.00549384,0.04279087,0.07294592
-2.49899996,-0.00225858,0.03180320,0.06208033
-2.49799996,-0.00555488,0.01971676,0.05225247
-2.49699996,-0.01214748,0.01092663,0.04242461
-2.49599996,-0.01764131,0.00000000,0.03259675
-2.49499996,-0.02423391,-0.00988890,0.02173117
-2.49399996,-0.03302405,-0.01867904,0.01080454
-2.49299996,-0.03632035,-0.03076547,-0.00012209
-2.49199996,-0.04297400,-0.03955561,-0.00885118
-2.49099996,-0.05066536,-0.04938347,-0.01971676
-2.48999996,-0.05506043,-0.06037114,-0.03064339
-2.48899996,-0.06275180,-0.07026004,-0.03937248
-2.48799996,-0.06824563,-0.08014894,-0.05023807
-2.48699996,-0.07154194,-0.09107557,-0.05896716
-2.48599996,-0.08039311,-0.09986570,-0.07099255
-2.48499996,-0.08698571,-0.11085340,-0.07862288
-2.48399996,-0.09357832,-0.12074230,-0.08954950
-2.48299996,-0.09797338,-0.13057010,-0.10041510
-2.48199996,-0.10346720,-0.14045900,-0.11024290
-2.48099996,-0.11115860,-0.15144670,-0.12007080
-2.47999996,-0.11781220,-0.16133560,-0.13099740
-2.47899996,-0.12330610,-0.17122450,-0.14076430
-2.47799996,-0.12879990,-0.18215110,-0.15169090
-2.47699996,-0.13649130,-0.19204000,-0.16151870
-2.47599996,-0.14308390,-0.20192890,-0.17134660
-2.47499996,-0.14638020,-0.21181780,-0.18111340
-2.47399996,-0.15297280,-0.22384320,-0.19204000
-2.47299996,-0.16072520,-0.23263340,-0.20186790
-2.47199996,-0.16621900,-0.24362110,-0.21169580
-2.47099996,-0.17061410,-0.25241120,-0.22146260
-2.46999996,-0.17720670,-0.26223900,-0.23238920
-2.46899996,-0.18379930,-0.27212790,-0.24221710
-2.46799996,-0.18929310,-0.28091810,-0.25204490
-2.46699996,-0.19814430,-0.29080700,-0.26187280
-2.46599996,-0.20253940,-0.29959710,-0.27163960
-2.46499996,-0.20913200,-0.31162250,-0.28036870
-2.46399996,-0.21462580,-0.32041260,-0.29129530
-2.46299996,-0.22121840,-0.32920280,-0.30112320
-2.46199996,-0.22561350,-0.33909170,-0.30985230
-2.46099996,-0.23220610,-0.35001830,-0.31961910
-2.45999996,-0.23995850,-0.35990720,-0.33054570
-2.45899996,-0.24435360,-0.36979610,-0.34147230
-2.45799996,-0.25094620,-0.37968500,-0.35020140
-2.45699996,-0.25314370,-0.38847510,-0.35996820
-2.45599996,-0.26193380,-0.39940180,-0.36869730
-2.45499996,-0.26742770,-0.40929070,-0.38072270
-2.45399996,-0.27518010,-0.41917960,-0.39055060
-2.45299996,-0.27957510,-0.42906850,-0.40037850
-2.45199996,-0.28616770,-0.43779760,-0.41014530
-2.45099996,-0.29276030,-0.44658770,-0.42107190
-2.44999996,-0.29715540,-0.45647660,-0.42870220
-2.44899996,-0.30264930,-0.46636550,-0.43853010
-2.44799996,-0.30924180,-0.47515570,-0.44725920
-2.44699996,-0.31479670,-0.48388480,-0.45708700
-2.44599996,-0.32029060,-0.49267490,-0.46575510
-2.44499996,-0.32578440,-0.50146500,-0.47558300
-2.44399996,-0.33237700,-0.51025520,-0.48541080
-2.44299996,-0.33677210,-0.52008300,-0.49304110
-2.44199996,-0.34446340,-0.52887310,-0.50396780
-2.44099996,-0.34885850,-0.53986080,-0.51269690
-2.43999996,-0.35551210,-0.54755220,-0.52252470
-2.43899996,-0.36100600,-0.55634230,-0.53015510
-2.43799996,-0.36759860,-0.56836770,-0.53992190
-2.43699996,-0.37199370,-0.57715790,-0.54865100
-2.43599996,-0.37748750,-0.58594800,-0.55957760
-2.43499996,-0.38188250,-0.59473810,-0.56940540
-2.43399996,-0.38847510,-0.60352830,-0.57813450
-2.43299996,-0.39622760,-0.61225740,-0.58686360
-2.43199996,-0.39952390,-0.62324500,-0.59559270
-2.43099996,-0.40611650,-0.63093640,-0.60535960
-2.42999996,-0.41161030,-0.63862780,-0.61298980
-2.42899996,-0.41820290,-0.64522030,-0.62281770
-2.42799996,-0.42259800,-0.65614700,-0.63044800
-2.42699996,-0.42699300,-0.66383830,-0.64027590
-2.42599996,-0.43584420,-0.67152970,-0.64790620
-2.42499996,-0.44023930,-0.67922110,-0.65553650
-2.42399996,-0.44463430,-0.68911000,-0.66426560
-2.42299996,-0.45012820,-0.69674030,-0.67519230
-2.42199996,-0.45562200,-0.70553050,-0.68062510
-2.42099996,-0.46221460,-0.71432060,-0.69045290
-2.41999996,-0.46667070,-0.72311070,-0.69918200
-2.41899996,-0.47106580,-0.72970330,-0.70791110
-2.41799996,-0.47546090,-0.73843240,-0.71554140
-2.41699996,-0.48315220,-0.74722250,-0.72317180
-2.41599996,-0.48864610,-0.75381520,-0.73299960
-2.41499996,-0.49413990,-0.76260530,-0.73843240
-2.41399996,-0.49963370,-0.77029660,-0.74606280
-2.41299996,-0.50402880,-0.77579050,-0.75479190
-2.41199996,-0.51068250,-0.78232200,-0.76352100
-2.41099996,-0.51397870,-0.79001340,-0.76895370
-2.40999996,-0.51947260,-0.79660600,-0.77658400
-2.40899996,-0.52386770,-0.80319860,-0.78207790
-2.40799996,-0.53155900,-0.81089000,-0.78860940
-2.40699996,-0.53595410,-0.81858130,-0.79514100
-2.40599996,-0.54144790,-0.82621170,-0.80387010
-2.40499996,-0.54810150,-0.82950800,-0.80930290
-2.40399996,-0.55139790,-0.83829810,-0.81803200
-2.40299996,-0.55689170,-0.84379200,-0.82352580
-2.40199996,-0.56018800,-0.85038450,-0.83225490
-2.40099996,-0.56787940,-0.85697720,-0.83768770
-2.39999996,-0.57227440,-0.86356970,-0.84312050
-2.39899996,-0.57666950,-0.87010130,-0.84861430
-2.39799996,-0.58216330,-0.87449640,-0.85514590
-2.39699996,-0.58661940,-0.87669390,-0.85947990
-2.39599996,-0.59321210,-0.88108900,-0.86497370
-2.39499996,-0.59650840,-0.88768160,-0.86820900
-2.39399996,-0.60200220,-0.89097790,-0.87040650
-2.39299996,-0.60749600,-0.89427420,-0.87474050
-2.39199996,-0.61189110,-0.89866920,-0.87913560
-2.39099996,-0.61628620,-0.90086680,-0.88237090
-2.38999996,-0.62293980,-0.90416310,-0.88456840
-2.38899996,-0.62843360,-0.90636060,-0.88786470
-2.38799996,-0.63173000,-0.90849710,-0.89110000
-2.38699996,-0.63612500,-0.91069470,-0.89439630
-2.38599996,-0.64052010,-0.91618850,-0.89659380
-2.38499996,-0.64491520,-0.91728720,-0.89873030
-2.38399996,-0.64931020,-0.91948480,-0.90202660
-2.38299996,-0.65590280,-0.92168230,-0.90532290
-2.38199996,-0.66029790,-0.92278110,-0.90636060
-2.38099996,-0.66365520,-0.92497860,-0.90745940
-2.37999996,-0.66914900,-0.92607740,-0.90855810
-2.37899996,-0.67464290,-0.92717620,-0.91075570
-2.37799996,-0.67574170,-0.92827490,-0.91075570
-2.37699996,-0.68123550,-0.93047240,-0.91295330
-2.37599996,-0.68563060,-0.92937370,-0.91405200
-2.37499996,-0.69002560,-0.93157120,-0.91508970
-2.37399996,-0.69661820,-0.93157120,-0.91508970
-2.37299996,-0.70107440,-0.93047240,-0.91405200
-2.37199996,-0.70217310,-0.92827490,-0.91185440
-2.37099996,-0.70766690,-0.92497860,-0.90965690
-2.36999996,-0.71316080,-0.92387990,-0.90855810
-2.36899996,-0.71755580,-0.92278110,-0.90745940
-2.36799996,-0.71975340,-0.92058350,-0.90745940
-2.36699996,-0.72524720,-0.92058350,-0.90532290
-2.36599996,-0.72854350,-0.92058350,-0.90532290
-2.36499996,-0.73293860,-0.92058350,-0.90532290
-2.36399996,-0.73849340,-0.91948480,-0.90532290
-2.36299996,-0.74178980,-0.92058350,-0.90745940
-2.36199996,-0.74508610,-0.92278110,-0.90855810
-2.36099996,-0.75277750,-0.92387990,-0.90855810
-2.35999996,-0.75387620,-0.92497860,-0.91185440
-2.35899996,-0.75827130,-0.92717620,-0.91405200
-2.35799996,-0.76156760,-0.92937370,-0.91618850
-2.35699996,-0.76376510,-0.93267000,-0.92058350
-2.35599996,-0.76816020,-0.93706510,-0.92381880
-2.35499996,-0.77365400,-0.94146010,-0.92931260
-2.35399996,-0.77811010,-0.94365760,-0.93035040
-2.35299996,-0.78250520,-0.94585520,-0.93364670
-2.35199996,-0.78470270,-0.95128800,-0.93694300
-2.35099996,-0.78909780,-0.95678180,-0.94237580
-2.34999996,-0.79239410,-0.95788060,-0.94670980
-2.34899996,-0.79678920,-0.96557190,-0.95000610
-2.34799996,-0.80008540,-0.96667080,-0.95440110
-2.34699996,-0.80228300,-0.97216460,-0.95983400
-2.34599996,-0.80667810,-0.97655960,-0.96306920
-2.34499996,-0.80887560,-0.98095470,-0.96856300
-2.34399996,-0.81436940,-0.98425100,-0.97399580
-2.34299996,-0.81546820,-0.99194230,-0.97729210
-2.34199996,-0.82102300,-0.99407890,-0.98492250
-2.34099996,-0.82431940,-0.99737510,-0.98602120
-2.33999996,-0.82651690,-1.00286900,-0.99035530
-2.33899996,-0.83091200,-1.00616500,-0.99475030
-2.33799996,-0.83201070,-1.01165900,-0.99688680
-2.33699996,-0.83750460,-1.01385700,-1.00347900
-2.33599996,-0.83970210,-1.01825200,-1.00781300
-2.33499996,-0.84409710,-1.02044900,-1.00891200
-2.33399996,-0.84519590,-1.02264700,-1.01324600
-2.33299996,-0.84959100,-1.02594300,-1.01764100
-2.33199996,-0.85178850,-1.02923900,-1.02087700
-2.33099996,-0.85624460,-1.03473300,-1.02307400
-2.32999996,-0.85844220,-1.03473300,-1.02746900
-2.32899996,-0.85954090,-1.03906700,-1.03070400
-2.32799996,-0.86283730,-1.04236400,-1.03400100
-2.32699996,-0.86833110,-1.04566000,-1.03510000
-2.32599996,-0.86942980,-1.04785700,-1.03723600
-2.32499996,-0.87492370,-1.05225200,-1.04163100
-2.32399996,-0.87602250,-1.05445000,-1.04382900
-2.32299996,-0.87712120,-1.05445000,-1.04816300
-2.32199996,-0.88261500,-1.05774600,-1.05145900
-2.32099996,-0.88591130,-1.06104300,-1.05255800
-2.31999996,-0.88810890,-1.06214100,-1.05579300
-2.31899996,-0.88920770,-1.06433900,-1.05799000
-2.31799996,-0.89360270,-1.06873400,-1.05908900
-2.31699996,-0.89476250,-1.06873400,-1.06122600
-2.31599996,-0.89696010,-1.06983300,-1.06452200
-2.31499996,-0.90025640,-1.07203000,-1.06452200
-2.31399996,-0.90245390,-1.07203000,-1.06672000
-2.31299996,-0.90465140,-1.07422800,-1.06891700
-2.31199996,-0.90794770,-1.07642500,-1.07105400
-2.31099996,-0.90904650,-1.07752400,-1.07325100
-2.30999996,-0.91124400,-1.07972200,-1.07435000
-2.30899996,-0.91563910,-1.08075900,-1.07758500
-2.30799996,-0.91783670,-1.08405600,-1.07758500
-2.30699996,-0.92003420,-1.08625300,-1.08198000
-2.30599996,-0.92003420,-1.08735200,-1.08417800
-2.30499996,-0.92223170,-1.08955000,-1.08521500
-2.30399996,-0.92552800,-1.09064800,-1.08851200
-2.30299996,-0.92662680,-1.09394500,-1.08851200
-2.30199996,-0.92992310,-1.09284600,-1.08961100
-2.30099996,-0.93102180,-1.09504300,-1.09180800
-2.29999996,-0.93212060,-1.09724100,-1.09290700
-2.29899996,-0.93547800,-1.09724100,-1.09394500
-2.29799996,-0.93657670,-1.09724100,-1.09614200
-2.29699996,-0.93547800,-1.09614200,-1.09724100
-2.29599996,-0.93987300,-1.09943800,-1.09943800
-2.29499996,-0.94207050,-1.10163600,-1.10053700
-2.29399996,-0.94426810,-1.10273500,-1.10157500
-2.29299996,-0.94426810,-1.10383300,-1.10377200
-2.29199996,-0.94646560,-1.10493200,-1.10487100
-2.29099996,-0.94866320,-1.10822900,-1.10487100
-2.28999996,-0.94976190,-1.10932700,-1.10816800
-2.28899996,-0.95305820,-1.11042600,-1.11030400
-2.28799996,-0.95305820,-1.11262400,-1.11140300
-2.28699996,-0.95415700,-1.11372200,-1.11250200
-2.28599996,-0.95525570,-1.11482100,-1.11469900
-2.28499996,-0.95635450,-1.11701900,-1.11579800
-2.28399996,-0.95965080,-1.11921600,-1.11793400
-2.28299996,-0.95965080,-1.11921600,-1.12013200
-2.28199996,-0.95855210,-1.12031500,-1.12232900
-2.28099996,-0.96294710,-1.12141400,-1.12452700
-2.27999996,-0.96404590,-1.12464900,-1.12452700
-2.27899996,-0.96514460,-1.12464900,-1.12776200
-2.27799996,-0.96624340,-1.12574800,-1.12776200
-2.27699996,-0.96624340,-1.12904400,-1.12996000
-2.27599996,-0.96734220,-1.12794500,-1.12886100
-2.27499996,-0.96844090,-1.12904400,-1.13325600
-2.27399996,-0.97063850,-1.13124200,-1.13429400
-2.27299996,-0.97179830,-1.13124200,-1.13539200
-2.27199996,-0.97179830,-1.13453800,-1.13649100
-2.27099996,-0.97289710,-1.13563700,-1.13868900
-2.26999996,-0.97399580,-1.13563700,-1.13978800
-2.26899996,-0.97399580,-1.13673500,-1.13978800
-2.26799996,-0.97509460,-1.13783400,-1.13978800
-2.26699996,-0.97619340,-1.13783400,-1.14302300
-2.26599996,-0.97509460,-1.13783400,-1.14198500
-2.26499996,-0.97729210,-1.13783400,-1.14198500
-2.26399996,-0.97948970,-1.13783400,-1.14198500
-2.26299996,-0.97729210,-1.13783400,-1.14302300
-2.26199996,-0.97839090,-1.13673500,-1.14198500
-2.26099996,-0.97948970,-1.13893300,-1.14302300
-2.25999996,-0.98058840,-1.13673500,-1.14302300
-2.25899996,-0.98168720,-1.13783400,-1.14302300
-2.25799996,-0.98058840,-1.13783400,-1.14302300
-2.25699996,-0.97948970,-1.13783400,-1.14412200
-2.25599996,-0.97948970,-1.13893300,-1.14412200
-2.25499996,-0.98058840,-1.13673500,-1.14302300
-2.25399996,-0.98168720,-1.13563700,-1.14522000
-2.25299996,-0.98278590,-1.13893300,-1.14412200
-2.25199996,-0.98168720,-1.13673500,-1.14412200
-2.25099996,-0.98278590,-1.13783400,-1.14522000
-2.24999996,-0.98278590,-1.13673500,-1.14412200
-2.24899996,-0.98278590,-1.13783400,-1.14412200
-2.24799996,-0.98168720,-1.13783400,-1.14522000
-2.24699996,-0.98168720,-1.13893300,-1.14741800
-2.24599996,-0.98058840,-1.13783400,-1.14631900
-2.24499996,-0.98168720,-1.13893300,-1.14631900
-2.24399996,-0.98278590,-1.13783400,-1.14631900
-2.24299996,-0.98278590,-1.13783400,-1.14522000
-2.24199996,-0.97839090,-1.13673500,-1.14412200
-2.24099996,-0.98168720,-1.13673500,-1.14412200
-2.23999996,-0.97948970,-1.13453800,-1.14302300
-2.23899996,-0.98058840,-1.13343900,-1.14412200
-2.23799996,-0.97948970,-1.13453800,-1.14302300
-2.23699996,-0.97839090,-1.13343900,-1.14302300
-2.23599996,-0.97839090,-1.13234000,-1.14412200
-2.23499996,-0.97839090,-1.13124200,-1.14198500
-2.23399996,-0.97839090,-1.13014300,-1.14088600
-2.23299996,-0.97729210,-1.12904400,-1.13868900
-2.23199996,-0.97729210,-1.12794500,-1.13868900
-2.23099996,-0.97509460,-1.12464900,-1.13759000
-2.22999996,-0.97399580,-1.12574800,-1.13759000
-2.22899996,-0.97509460,-1.12355000,-1.13539200
-2.22799996,-0.97063850,-1.12251200,-1.13325600
-2.22699996,-0.97179830,-1.12031500,-1.13325600
-2.22599996,-0.97063850,-1.11811700,-1.13215700
-2.22499996,-0.97063850,-1.11921600,-1.13105800
-2.22399996,-0.97063850,-1.11592000,-1.12886100
-2.22299996,-0.96844090,-1.11372200,-1.12776200
-2.22199996,-0.96624340,-1.11262400,-1.12562600
-2.22099996,-0.96624340,-1.11042600,-1.12452700
-2.21999996,-0.96404590,-1.10932700,-1.12452700
-2.21899996,-0.96624340,-1.10822900,-1.12123100
-2.21799996,-0.96294710,-1.10713000,-1.12013200
-2.21699996,-0.96184840,-1.10603100,-1.11903300
-2.21599996,-0.96184840,-1.10493200,-1.11689700
-2.21499996,-0.95965080,-1.10053700,-1.11689700
-2.21399996,-0.95745330,-1.09943800,-1.11469900
-2.21299996,-0.95635450,-1.09834000,-1.11250200
-2.21199996,-0.95525570,-1.09614200,-1.11030400
-2.21099996,-0.95305820,-1.09394500,-1.10816800
-2.20999996,-0.94976190,-1.08955000,-1.10487100
-2.20899996,-0.94976190,-1.08845100,-1.10377200
-2.20799996,-0.94756440,-1.08625300,-1.10053700
-2.20699996,-0.94756440,-1.08295700,-1.09834000
-2.20599996,-0.94646560,-1.07972200,-1.09394500
-2.20499996,-0.94426810,-1.07642500,-1.09290700
-2.20399996,-0.94316930,-1.07422800,-1.09070900
-2.20299996,-0.94097180,-1.07093100,-1.08851200
-2.20199996,-0.93877420,-1.06763500,-1.08521500
-2.20099996,-0.93767550,-1.06433900,-1.08198000
-2.19999996,-0.93657670,-1.06104300,-1.07868400
-2.19899996,-0.93328040,-1.05774600,-1.07544900
-2.19799996,-0.93102180,-1.05335100,-1.07215200
-2.19699996,-0.92992310,-1.05115400,-1.06891700
-2.19599996,-0.92992310,-1.04895600,-1.06672000
-2.19499996,-0.92552800,-1.04346200,-1.06232500
-2.19399996,-0.92223170,-1.03906700,-1.05908900
-2.19299996,-0.92223170,-1.03693100,-1.05579300
-2.19199996,-0.92003420,-1.03363400,-1.05255800
-2.19099996,-0.91563910,-1.02923900,-1.04816300
-2.18999996,-0.91454040,-1.02704200,-1.04486600
-2.18899996,-0.91234280,-1.02044900,-1.04053200
-2.18799996,-0.91124400,-1.01825200,-1.03833500
-2.18699996,-0.90794770,-1.01385700,-1.03400100
-2.18599996,-0.90465140,-1.00946200,-1.03070400
-2.18499996,-0.90465140,-1.00616500,-1.02746900
-2.18399996,-0.90135510,-1.00396800,-1.02307400
-2.18299996,-0.89805880,-1.00067200,-1.02087700
-2.18199996,-0.89586130,-0.99737510,-1.01764100
-2.18099996,-0.89476250,-0.99194230,-1.01544400
-2.17999996,-0.89140520,-0.98864600,-1.01111000
-2.17899996,-0.88810890,-0.98425100,-1.00451700
-2.17799996,-0.88481260,-0.98095470,-1.00128200
-2.17699996,-0.88371380,-0.97765840,-0.99688680
-2.17599996,-0.87931880,-0.97216460,-0.99255280
-2.17499996,-0.87712120,-0.96667080,-0.98925650
-2.17399996,-0.87492370,-0.96117690,-0.98272490
-2.17299996,-0.87272610,-0.95678180,-0.97839090
-2.17199996,-0.86942980,-0.95238670,-0.97289710
-2.17099996,-0.86723230,-0.94695400,-0.96966180
-2.16999996,-0.86283730,-0.94255890,-0.96526680
-2.16899996,-0.86063970,-0.93706510,-0.95983400
-2.16799996,-0.85734340,-0.93376870,-0.95543890
-2.16699996,-0.85514590,-0.92827490,-0.95110490
-2.16599996,-0.85288730,-0.92607740,-0.94670980
-2.16499996,-0.84849230,-0.92058350,-0.94347450
-2.16399996,-0.84409710,-0.91618850,-0.93694300
-2.16299996,-0.84299840,-0.91179340,-0.93364670
-2.16199996,-0.83750460,-0.90745940,-0.92821390
-2.16099996,-0.83530700,-0.90196560,-0.92601630
-2.15999996,-0.82981320,-0.89757050,-0.92168230
-2.15899996,-0.82981320,-0.89317540,-0.91618850
-2.15799996,-0.82541810,-0.88768160,-0.91075570
-2.15699996,-0.82322060,-0.88438530,-0.90855810
-2.15599996,-0.81882550,-0.87779270,-0.90422420
-2.15499996,-0.81436940,-0.87339760,-0.89769260
-2.15399996,-0.81107310,-0.86900260,-0.89329750
-2.15299996,-0.80777680,-0.86460750,-0.88896350
-2.15199996,-0.80448050,-0.85917470,-0.88346960
-2.15099996,-0.80228300,-0.85368080,-0.87913560
-2.14999996,-0.79678920,-0.84818700,-0.87364180
-2.14899996,-0.79459160,-0.84379200,-0.86820900
-2.14799996,-0.79129530,-0.83719930,-0.86167740
-2.14699996,-0.78799900,-0.83280430,-0.85947990
-2.14599996,-0.78250520,-0.82731040,-0.85294840
-2.14499996,-0.78030770,-0.82181660,-0.84641680
-2.14399996,-0.77475270,-0.81528510,-0.84202170
-2.14299996,-0.77145650,-0.81089000,-0.83549020
-2.14199996,-0.76816020,-0.80429740,-0.83115610
-2.14099996,-0.76376510,-0.79880360,-0.82676110
-2.13999996,-0.76156760,-0.79440850,-0.82022950
-2.13899996,-0.75607370,-0.78891470,-0.81589550
-2.13799996,-0.75167860,-0.78232200,-0.81150040
-2.13699996,-0.74838230,-0.77902570,-0.80606760
-2.13599996,-0.74398730,-0.77249420,-0.80057380
-2.13499996,-0.74069100,-0.76700040,-0.79404220
-2.13399996,-0.73623490,-0.76040770,-0.78860940
-2.13299996,-0.73074100,-0.75601270,-0.78317670
-2.13199996,-0.72854350,-0.74942010,-0.77768280
-2.13099996,-0.72414850,-0.74392620,-0.77225000
-2.12999996,-0.71865460,-0.73953120,-0.76571850
-2.12899996,-0.71535830,-0.73190090,-0.76132340
-2.12799996,-0.70986450,-0.72750580,-0.75479190
-2.12699996,-0.70656820,-0.71981440,-0.74935900
-2.12599996,-0.70327190,-0.71432060,-0.74386520
-2.12499996,-0.69771700,-0.70882680,-0.73733370
-2.12399996,-0.69442070,-0.70223410,-0.72970330
-2.12299996,-0.68892690,-0.69674030,-0.72427050
-2.12199996,-0.68563060,-0.69130750,-0.71987550
-2.12099996,-0.68013670,-0.68471490,-0.71334390
-2.11999996,-0.67574170,-0.67922110,-0.70791110
-2.11899996,-0.67134660,-0.67262850,-0.70028080
-2.11799996,-0.66695150,-0.66603590,-0.69478700
-2.11699996,-0.66255650,-0.65944330,-0.68935420
-2.11599996,-0.65810040,-0.65285070,-0.68282260
-2.11499996,-0.65480410,-0.64631920,-0.67629100
-2.11399996,-0.64821140,-0.63972650,-0.67079720
-2.11299996,-0.64491520,-0.63533150,-0.66426560
-2.11199996,-0.64052010,-0.62873890,-0.65883280
-2.11099996,-0.63722380,-0.62214620,-0.65230130
-2.10999996,-0.62953240,-0.61555360,-0.64467100
-2.10899996,-0.62513730,-0.61005980,-0.64027590
-2.10799996,-0.62068120,-0.60352830,-0.63264560
-2.10699996,-0.61628620,-0.59693560,-0.62831160
-2.10599996,-0.61079230,-0.58924430,-0.62171890
-2.10499996,-0.60639730,-0.58375040,-0.61518740
-2.10399996,-0.60090340,-0.57825660,-0.60865580
-2.10299996,-0.59540960,-0.57166400,-0.60426070
-2.10199996,-0.59211330,-0.56507140,-0.59559270
-2.10099996,-0.58552070,-0.55963860,-0.59009890
-2.09999996,-0.57996580,-0.55194720,-0.58466610
-2.09899996,-0.57666950,-0.54645340,-0.57813450
-2.09799996,-0.57117570,-0.53986080,-0.57050420
-2.09699996,-0.56787940,-0.53546570,-0.56391160
-2.09599996,-0.56128670,-0.52777440,-0.55957760
-2.09499996,-0.55579290,-0.52008300,-0.55194720
-2.09399996,-0.55139790,-0.51465020,-0.54431690
-2.09299996,-0.54590400,-0.50915640,-0.53888420
-2.09199996,-0.54034910,-0.50146500,-0.53448900
-2.09099996,-0.53705290,-0.49487240,-0.52685870
-2.08999996,-0.53155900,-0.49047740,-0.52032720
-2.08899996,-0.52496640,-0.48278600,-0.51269690
-2.08799996,-0.51947260,-0.47729220,-0.50830180
