Frequency,Channel A,Channel B,Channel C
(ms),(V),(V),(V)

-2.50129130,0.01208644,0.05042119,0.08387254
-2.50029130,0.00769137,0.04169210,0.07404468
-2.49929130,0.00000000,0.02960566,0.06317910
-2.49829130,-0.00665364,0.02081553,0.05225247
-2.49729130,-0.01214748,0.01202539,0.04132584
-2.49629130,-0.01874008,0.00000000,0.03259675
-2.49529130,-0.02313515,-0.00988890,0.02282993
-2.49429130,-0.03082652,-0.02087657,0.01300208
-2.49329130,-0.03741912,-0.02966671,0.00427298
-2.49229130,-0.04407276,-0.03955561,-0.00665364
-2.49129130,-0.04846783,-0.04938347,-0.01861800
-2.49029130,-0.05396166,-0.05817360,-0.02844585
-2.48929130,-0.05945550,-0.06916127,-0.03717495
-2.48829130,-0.06824563,-0.07905018,-0.04810157
-2.48729130,-0.07373947,-0.08887804,-0.05792943
-2.48629130,-0.07929435,-0.09876694,-0.06879502
-2.48529130,-0.08478818,-0.10755710,-0.07862288
-2.48429130,-0.09247955,-0.11854470,-0.08954950
-2.48329130,-0.09687462,-0.12953240,-0.09931632
-2.48229130,-0.10346720,-0.13826150,-0.10914420
-2.48129130,-0.11115860,-0.14924920,-0.12007080
-2.48029130,-0.11555370,-0.16023680,-0.12770110
-2.47929130,-0.12110850,-0.17012580,-0.13752900
-2.47829130,-0.12989870,-0.18105240,-0.14839460
-2.47729130,-0.13539250,-0.19094130,-0.15932120
-2.47629130,-0.14088630,-0.19863260,-0.16914910
-2.47529130,-0.14638020,-0.20962030,-0.17897690
-2.47429130,-0.15187400,-0.22054690,-0.18874370
-2.47329130,-0.15852760,-0.22933710,-0.19857160
-2.47229130,-0.16731780,-0.23812720,-0.20949820
-2.47129130,-0.17171280,-0.24801610,-0.21932610
-2.47029130,-0.17830540,-0.25790500,-0.22805520
-2.46929130,-0.18379930,-0.26773290,-0.24001950
-2.46829130,-0.18929310,-0.27981930,-0.24874860
-2.46729130,-0.19594680,-0.28641190,-0.25637890
-2.46629130,-0.20144060,-0.29739960,-0.26730560
-2.46529130,-0.20693440,-0.30612870,-0.27713340
-2.46429130,-0.21352700,-0.31711630,-0.28476380
-2.46329130,-0.21902090,-0.32480770,-0.29672810
-2.46229130,-0.22451470,-0.33469660,-0.30655600
-2.46129130,-0.23220610,-0.34348680,-0.31528510
-2.46029130,-0.23885970,-0.35331460,-0.32401420
-2.45929130,-0.24215600,-0.36320350,-0.33494080
-2.45829130,-0.24984740,-0.37309240,-0.34360880
-2.45729130,-0.25644000,-0.38188250,-0.35453550
-2.45629130,-0.25973630,-0.39171040,-0.36326460
-2.45529130,-0.26742770,-0.40050050,-0.37309240
-2.45429130,-0.27298250,-0.41038950,-0.38292030
-2.45329130,-0.27847640,-0.41917960,-0.39055060
-2.45229130,-0.28397020,-0.42687090,-0.40141620
-2.45129130,-0.29056280,-0.43889640,-0.41124400
-2.45029130,-0.29605660,-0.44658770,-0.41997310
-2.44929130,-0.30155050,-0.45537780,-0.42870220
-2.44829130,-0.30704430,-0.46526680,-0.43853010
-2.44729130,-0.31479670,-0.47185930,-0.44616040
-2.44629130,-0.32029060,-0.48168720,-0.45488950
-2.44529130,-0.32688320,-0.49047740,-0.46251980
-2.44429130,-0.33127820,-0.49707000,-0.47124890
-2.44329130,-0.33787080,-0.50586010,-0.47997800
-2.44229130,-0.34226590,-0.51465020,-0.48760830
-2.44129130,-0.34885850,-0.52337930,-0.49633740
-2.44029130,-0.35441340,-0.53107070,-0.50506650
-2.43929130,-0.36100600,-0.53876200,-0.51269690
-2.43829130,-0.36649980,-0.54535470,-0.52032720
-2.43729130,-0.37199370,-0.55304600,-0.52795750
-2.43629130,-0.37748750,-0.56177510,-0.53558780
-2.43529130,-0.38298130,-0.56946650,-0.54321810
-2.43429130,-0.38963500,-0.57496030,-0.55084850
-2.43329130,-0.39512880,-0.58375040,-0.55847880
-2.43229130,-0.39952390,-0.59034310,-0.56610910
-2.43129130,-0.40611650,-0.59913320,-0.57373950
-2.43029130,-0.41161030,-0.60676350,-0.58027100
-2.42929130,-0.41710410,-0.61335610,-0.58686360
-2.42829130,-0.42259800,-0.61994870,-0.59339520
-2.42729130,-0.42699300,-0.62764010,-0.60102550
-2.42629130,-0.43364670,-0.63423270,-0.60865580
-2.42529130,-0.43914050,-0.64082530,-0.61738490
-2.42429130,-0.44683190,-0.64845560,-0.62281770
-2.42329130,-0.45122690,-0.65504820,-0.63044800
-2.42229130,-0.45452330,-0.66164080,-0.63917710
-2.42129130,-0.46221460,-0.66933220,-0.64570870
-2.42029130,-0.46776950,-0.67702350,-0.65120260
-2.41929130,-0.47216460,-0.68141860,-0.65773410
-2.41829130,-0.47765840,-0.68801120,-0.66316690
-2.41729130,-0.48315220,-0.69234530,-0.66866070
-2.41629130,-0.48974480,-0.69893780,-0.67519230
-2.41529130,-0.49413990,-0.70333290,-0.68062510
-2.41429130,-0.49963370,-0.71102430,-0.68605790
-2.41329130,-0.50512750,-0.71432060,-0.69155170
-2.41229130,-0.50958370,-0.72091320,-0.69698450
-2.41129130,-0.51617630,-0.72640710,-0.70028080
-2.41029130,-0.51837380,-0.72750580,-0.70461480
-2.40929130,-0.52606520,-0.73409840,-0.71010860
-2.40829130,-0.53046020,-0.73733370,-0.71334390
-2.40729130,-0.53595410,-0.74063000,-0.71773900
-2.40629130,-0.54144790,-0.74502500,-0.72207300
-2.40529130,-0.54700280,-0.74722250,-0.72646810
-2.40429130,-0.55139790,-0.75051890,-0.72970330
-2.40329130,-0.55799050,-0.75601270,-0.73299960
-2.40229130,-0.56238560,-0.75821020,-0.73733370
-2.40129130,-0.56787940,-0.76370410,-0.74063000
-2.40029130,-0.57227440,-0.76700040,-0.74606280
-2.39929130,-0.57776830,-0.77139540,-0.75045780
-2.39829130,-0.58332310,-0.77469170,-0.75369300
-2.39729130,-0.58881700,-0.77688930,-0.75479190
-2.39629130,-0.59431080,-0.77902570,-0.75912580
-2.39529130,-0.59760710,-0.78232200,-0.75912580
-2.39429130,-0.60200220,-0.78122330,-0.76022460
-2.39329130,-0.60749600,-0.78342080,-0.76242210
-2.39229130,-0.61408870,-0.78451960,-0.76461970
-2.39129130,-0.61738490,-0.78671710,-0.76571850
-2.39029130,-0.62293980,-0.78561840,-0.76681720
-2.38929130,-0.62733490,-0.78891470,-0.77005250
-2.38829130,-0.63282870,-0.79111220,-0.77225000
-2.38729130,-0.63722380,-0.79440850,-0.77548530
-2.38629130,-0.64052010,-0.79880360,-0.77988030
-2.38529130,-0.64711270,-0.80209980,-0.78317670
-2.38429130,-0.65260650,-0.80539610,-0.78751070
-2.38329130,-0.65590280,-0.80979120,-0.78970820
-2.38229130,-0.66029790,-0.81308750,-0.79514100
-2.38129130,-0.66365520,-0.81748260,-0.79953600
-2.38029130,-0.66914900,-0.82077890,-0.80277130
-2.37929130,-0.67244540,-0.82401410,-0.80716640
-2.37829130,-0.67793920,-0.82840920,-0.81150040
-2.37729130,-0.68343310,-0.83390310,-0.81479670
-2.37629130,-0.68782810,-0.83610060,-0.81803200
-2.37529130,-0.69332190,-0.83939690,-0.82242700
-2.37429130,-0.69551940,-0.84269320,-0.82676110
-2.37329130,-0.70107440,-0.84818700,-0.83005740
-2.37229130,-0.70656820,-0.85258210,-0.83439140
-2.37129130,-0.70876570,-0.85477960,-0.83988520
-2.37029130,-0.71425960,-0.86137220,-0.84421930
-2.36929130,-0.71645710,-0.86460750,-0.84861430
-2.36829130,-0.72414850,-0.86900260,-0.85294840
-2.36729130,-0.72634600,-0.87339760,-0.85728240
-2.36629130,-0.73183980,-0.87889150,-0.86167740
-2.36529130,-0.73293860,-0.88218770,-0.86601140
-2.36429130,-0.73849340,-0.88548400,-0.87150530
-2.36329130,-0.74178980,-0.88987910,-0.87364180
-2.36229130,-0.74728360,-0.89317540,-0.87803690
-2.36129130,-0.74948110,-0.89757050,-0.88133320
-2.36029130,-0.75497500,-0.90086680,-0.88676600
-2.35929130,-0.75827130,-0.90636060,-0.89000120
-2.35829130,-0.76266630,-0.90959590,-0.89659380
-2.35729130,-0.76596260,-0.91618850,-0.90092780
-2.35629130,-0.76925890,-0.91948480,-0.90312530
-2.35529130,-0.77145650,-0.92387990,-0.90745940
-2.35429130,-0.77695030,-0.92827490,-0.91295330
-2.35329130,-0.78030770,-0.93157120,-0.91948480
-2.35229130,-0.78580150,-0.93596630,-0.92381880
-2.35129130,-0.78909780,-0.94036140,-0.92821390
-2.35029130,-0.79129530,-0.94475640,-0.93144910
-2.34929130,-0.79569040,-0.95025030,-0.93584420
-2.34829130,-0.80008540,-0.95348550,-0.94017820
-2.34729130,-0.80118420,-0.95678180,-0.94457330
-2.34629130,-0.80667810,-0.96117690,-0.94890730
-2.34529130,-0.80777680,-0.96557190,-0.95330240
-2.34429130,-0.81327060,-0.96886830,-0.95653770
-2.34329130,-0.81662800,-0.97436210,-0.96093270
-2.34229130,-0.82102300,-0.97655960,-0.96306920
-2.34129130,-0.82431940,-0.98205350,-0.96966180
-2.34029130,-0.82761570,-0.98534980,-0.97399580
-2.33929130,-0.82871440,-0.98754730,-0.97839090
-2.33829130,-0.83310950,-0.99407890,-0.98162620
-2.33729130,-0.83640580,-0.99737510,-0.98602120
-2.33629130,-0.84080090,-1.00177000,-0.99145400
-2.33529130,-0.84409710,-1.00726400,-0.99578800
-2.33429130,-0.84629470,-1.01165900,-1.00018300
-2.33329130,-0.84959100,-1.01605400,-1.00671500
-2.33229130,-0.85178850,-1.02044900,-1.01111000
-2.33129130,-0.85624460,-1.02484400,-1.01434500
-2.33029130,-0.86063970,-1.03033800,-1.01983900
-2.32929130,-0.86173850,-1.03253600,-1.02197500
-2.32829130,-0.86613360,-1.03473300,-1.02527200
-2.32729130,-0.86942980,-1.03583200,-1.02637000
-2.32629130,-0.86942980,-1.03796900,-1.02960600
-2.32529130,-0.87162740,-1.04016600,-1.03070400
-2.32429130,-0.87602250,-1.04126500,-1.03180300
-2.32329130,-0.87712120,-1.04346200,-1.03510000
-2.32229130,-0.88261500,-1.04566000,-1.03943300
-2.32129130,-0.88371380,-1.04785700,-1.03943300
-2.32029130,-0.88591130,-1.05005500,-1.04273000
-2.31929130,-0.88920770,-1.05335100,-1.04706400
-2.31829130,-0.89140520,-1.05774600,-1.05036000
-2.31729130,-0.89476250,-1.06104300,-1.05469400
-2.31629130,-0.89586130,-1.06324000,-1.05689200
-2.31529130,-0.89805880,-1.06543800,-1.06122600
-2.31429130,-0.90355270,-1.06983300,-1.06342300
-2.31329130,-0.90465140,-1.07203000,-1.06342300
-2.31229130,-0.90794770,-1.07532700,-1.06781800
-2.31129130,-0.91014530,-1.07642500,-1.07105400
-2.31029130,-0.91234280,-1.07972200,-1.07325100
-2.30929130,-0.91234280,-1.08075900,-1.07758500
-2.30829130,-0.91563910,-1.08405600,-1.07978300
-2.30729130,-0.91783670,-1.08625300,-1.08198000
-2.30629130,-0.92113290,-1.08735200,-1.08307900
-2.30529130,-0.92223170,-1.09064800,-1.08631400
-2.30429130,-0.92552800,-1.09284600,-1.09180800
-2.30329130,-0.92662680,-1.09614200,-1.09290700
-2.30229130,-0.92882430,-1.09834000,-1.09394500
-2.30129130,-0.92992310,-1.09943800,-1.09614200
-2.30029130,-0.93328040,-1.10053700,-1.09834000
-2.29929130,-0.93437920,-1.10493200,-1.10157500
-2.29829130,-0.93767550,-1.10603100,-1.10487100
-2.29729130,-0.93877420,-1.10822900,-1.10706900
-2.29629130,-0.93987300,-1.11042600,-1.10706900
-2.29529130,-0.94207050,-1.11152500,-1.11140300
-2.29429130,-0.94426810,-1.11262400,-1.11250200
-2.29329130,-0.94426810,-1.11701900,-1.11579800
-2.29229130,-0.94756440,-1.11811700,-1.11689700
-2.29129130,-0.94756440,-1.12141400,-1.12013200
-2.29029130,-0.94866320,-1.12355000,-1.12342800
-2.28929130,-0.95195940,-1.12574800,-1.12562600
-2.28829130,-0.95415700,-1.13014300,-1.12776200
-2.28729130,-0.95305820,-1.13124200,-1.13215700
-2.28629130,-0.95635450,-1.13673500,-1.13429400
-2.28529130,-0.95745330,-1.13783400,-1.13649100
-2.28429130,-0.95745330,-1.13783400,-1.13868900
-2.28329130,-0.95965080,-1.13893300,-1.13978800
-2.28229130,-0.96294710,-1.14222900,-1.14088600
-2.28129130,-0.96404590,-1.14222900,-1.14302300
-2.28029130,-0.96294710,-1.14332800,-1.14302300
-2.27929130,-0.96514460,-1.14442700,-1.14631900
-2.27829130,-0.96624340,-1.14772300,-1.14741800
-2.27729130,-0.96624340,-1.14772300,-1.14741800
-2.27629130,-0.96734220,-1.14772300,-1.14961500
-2.27529130,-0.96844090,-1.14992100,-1.15175200
-2.27429130,-0.96953970,-1.15101900,-1.15285100
-2.27329130,-0.96953970,-1.14992100,-1.15394900
-2.27229130,-0.97179830,-1.15211800,-1.15504800
-2.27129130,-0.97289710,-1.15321700,-1.15394900
-2.27029130,-0.97399580,-1.15431600,-1.15834500
-2.26929130,-0.97399580,-1.15431600,-1.15724600
-2.26829130,-0.97509460,-1.15431600,-1.15834500
-2.26729130,-0.97729210,-1.15541400,-1.15938200
-2.26629130,-0.97619340,-1.15541400,-1.16048100
-2.26529130,-0.97839090,-1.15651300,-1.16048100
-2.26429130,-0.97839090,-1.15761200,-1.16158000
-2.26329130,-0.97839090,-1.15651300,-1.16267800
-2.26229130,-0.98058840,-1.15761200,-1.16267800
-2.26129130,-0.97948970,-1.15981000,-1.16377700
-2.26029130,-0.97948970,-1.15871100,-1.16487600
-2.25929130,-0.97948970,-1.15981000,-1.16377700
-2.25829130,-0.97948970,-1.15871100,-1.16377700
-2.25729130,-0.98058840,-1.15761200,-1.16267800
-2.25629130,-0.98058840,-1.15761200,-1.16158000
-2.25529130,-0.98168720,-1.15651300,-1.16267800
-2.25429130,-0.98278590,-1.15651300,-1.16267800
-2.25329130,-0.98278590,-1.15761200,-1.16267800
-2.25229130,-0.98168720,-1.15541400,-1.16267800
-2.25129130,-0.97948970,-1.15541400,-1.16377700
-2.25029130,-0.98058840,-1.15651300,-1.16267800
-2.24929130,-0.98168720,-1.15651300,-1.16377700
-2.24829130,-0.98278590,-1.15541400,-1.16267800
-2.24729130,-0.98058840,-1.15431600,-1.16267800
-2.24629130,-0.98168720,-1.15431600,-1.16158000
-2.24529130,-0.98278590,-1.15321700,-1.16158000
-2.24429130,-0.98168720,-1.15211800,-1.16048100
-2.24329130,-0.98278590,-1.14992100,-1.15834500
-2.24229130,-0.98168720,-1.14882200,-1.15834500
-2.24129130,-0.98168720,-1.14662400,-1.15724600
-2.24029130,-0.97948970,-1.14552600,-1.15504800
-2.23929130,-0.98168720,-1.14332800,-1.15504800
-2.23829130,-0.97948970,-1.14113000,-1.15285100
-2.23729130,-0.97948970,-1.14003200,-1.15065300
-2.23629130,-0.97948970,-1.13783400,-1.14961500
-2.23529130,-0.97839090,-1.13563700,-1.14631900
-2.23429130,-0.97729210,-1.13343900,-1.14631900
-2.23329130,-0.97729210,-1.13343900,-1.14302300
-2.23229130,-0.97509460,-1.13234000,-1.14198500
-2.23129130,-0.97399580,-1.12904400,-1.13978800
-2.23029130,-0.97399580,-1.12794500,-1.13978800
-2.22929130,-0.97399580,-1.12464900,-1.13759000
-2.22829130,-0.97289710,-1.12574800,-1.13649100
-2.22729130,-0.97289710,-1.12141400,-1.13649100
-2.22629130,-0.97179830,-1.12251200,-1.13429400
-2.22529130,-0.97063850,-1.11921600,-1.13215700
-2.22429130,-0.97063850,-1.11811700,-1.12996000
-2.22329130,-0.96953970,-1.11482100,-1.12886100
-2.22229130,-0.96734220,-1.11262400,-1.12562600
-2.22129130,-0.96734220,-1.11042600,-1.12562600
-2.22029130,-0.96514460,-1.11042600,-1.12342800
-2.21929130,-0.96514460,-1.10713000,-1.12123100
-2.21829130,-0.96404590,-1.10822900,-1.11793400
-2.21729130,-0.96074960,-1.10383300,-1.11689700
-2.21629130,-0.96184840,-1.10053700,-1.11579800
-2.21529130,-0.95965080,-1.09834000,-1.11250200
-2.21429130,-0.95745330,-1.09724100,-1.11140300
-2.21329130,-0.95745330,-1.09394500,-1.11030400
-2.21229130,-0.95745330,-1.09394500,-1.10816800
-2.21129130,-0.95525570,-1.09174700,-1.10597000
-2.21029130,-0.95305820,-1.08735200,-1.10377200
-2.20929130,-0.95195940,-1.08845100,-1.10053700
-2.20829130,-0.95086070,-1.08295700,-1.09834000
-2.20729130,-0.95086070,-1.08075900,-1.09614200
-2.20629130,-0.94646560,-1.07862300,-1.09394500
-2.20529130,-0.94536690,-1.07532700,-1.09070900
-2.20429130,-0.94316930,-1.07093100,-1.08741300
-2.20329130,-0.94207050,-1.06983300,-1.08417800
-2.20229130,-0.94207050,-1.06543800,-1.08088100
-2.20129130,-0.93767550,-1.06214100,-1.07978300
-2.20029130,-0.93547800,-1.05994400,-1.07654700
-2.19929130,-0.93328040,-1.05664800,-1.07435000
-2.19829130,-0.93212060,-1.05335100,-1.07215200
-2.19729130,-0.93102180,-1.05115400,-1.06891700
-2.19629130,-0.92772560,-1.04895600,-1.06452200
-2.19529130,-0.92772560,-1.04346200,-1.06122600
-2.19429130,-0.92442920,-1.04126500,-1.05908900
-2.19329130,-0.92223170,-1.03906700,-1.05469400
-2.19229130,-0.92113290,-1.03473300,-1.05255800
-2.19129130,-0.91673790,-1.03033800,-1.04816300
-2.19029130,-0.91563910,-1.02704200,-1.04706400
-2.18929130,-0.91344150,-1.02264700,-1.04163100
-2.18829130,-0.91234280,-1.01935100,-1.03833500
-2.18729130,-0.90794770,-1.01495500,-1.03290200
-2.18629130,-0.90575020,-1.00946200,-1.03070400
-2.18529130,-0.90465140,-1.00616500,-1.02527200
-2.18429130,-0.90245390,-1.00177000,-1.02087700
-2.18329130,-0.89696010,-0.99847390,-1.01654300
-2.18229130,-0.89805880,-0.99304120,-1.01434500
-2.18129130,-0.89360270,-0.98754730,-1.00781300
-2.18029130,-0.89250400,-0.98315220,-1.00347900
-2.17929130,-0.88810890,-0.97765840,-0.99798560
-2.17829130,-0.88810890,-0.97436210,-0.99255280
-2.17729130,-0.88371380,-0.96776950,-0.98712000
-2.17629130,-0.88151630,-0.96227560,-0.98492250
-2.17529130,-0.87822000,-0.95788060,-0.98052740
-2.17429130,-0.87602250,-0.95238670,-0.97399580
-2.17329130,-0.87382490,-0.94695400,-0.97076060
-2.17229130,-0.87162740,-0.94475640,-0.96636550
-2.17129130,-0.86503480,-0.93926260,-0.96203150
-2.17029130,-0.86173850,-0.93376870,-0.95653770
-2.16929130,-0.86063970,-0.92937370,-0.95220360
-2.16829130,-0.85514590,-0.92607740,-0.94780860
-2.16729130,-0.85624460,-0.91948480,-0.94237580
-2.16629130,-0.85288730,-0.91399100,-0.93804170
-2.16529130,-0.84959100,-0.90959590,-0.93254790
-2.16429130,-0.84629470,-0.90416310,-0.92711510
-2.16329130,-0.84299840,-0.90086680,-0.92272010
-2.16229130,-0.83970210,-0.89537300,-0.91838600
-2.16129130,-0.83530700,-0.89097790,-0.91295330
-2.16029130,-0.83530700,-0.88658290,-0.90965690
-2.15929130,-0.82981320,-0.88218770,-0.90532290
-2.15829130,-0.82761570,-0.87779270,-0.89873030
-2.15729130,-0.82431940,-0.87229880,-0.89439630
-2.15629130,-0.82102300,-0.86570630,-0.89000120
-2.15529130,-0.81772670,-0.86137220,-0.88676600
-2.15429130,-0.81436940,-0.85587840,-0.88237090
-2.15329130,-0.80997440,-0.85148330,-0.87693810
-2.15229130,-0.80557930,-0.84708830,-0.87150530
-2.15129130,-0.80228300,-0.84159440,-0.86711030
-2.15029130,-0.79678920,-0.83829810,-0.86167740
-2.14929130,-0.79678920,-0.83390310,-0.85728240
-2.14829130,-0.79349290,-0.82840920,-0.85294840
-2.14729130,-0.78909780,-0.82291540,-0.84751560
-2.14629130,-0.78470270,-0.81748260,-0.84312050
-2.14529130,-0.78140640,-0.81308750,-0.83768770
-2.14429130,-0.77695030,-0.80759370,-0.83225490
-2.14329130,-0.77255520,-0.80209980,-0.82785980
-2.14229130,-0.76925890,-0.79880360,-0.82242700
-2.14129130,-0.76486380,-0.79221090,-0.81803200
-2.14029130,-0.76046880,-0.78781590,-0.81369790
-2.13929130,-0.75717250,-0.78232200,-0.80820410
-2.13829130,-0.75497500,-0.77792700,-0.80167260
-2.13729130,-0.75057990,-0.76919790,-0.79843730
-2.13629130,-0.74618480,-0.76590160,-0.79294350
-2.13529130,-0.74069100,-0.76150650,-0.78751070
-2.13429130,-0.73733370,-0.75491390,-0.78317670
-2.13329130,-0.73513610,-0.75051890,-0.77548530
-2.13229130,-0.73074100,-0.74392620,-0.77115120
-2.13129130,-0.72634600,-0.73733370,-0.76571850
-2.13029130,-0.72195090,-0.73299960,-0.75912580
-2.12929130,-0.71535830,-0.72530820,-0.75369300
-2.12829130,-0.71206200,-0.72091320,-0.74826030
-2.12729130,-0.70876570,-0.71432060,-0.74172870
-2.12629130,-0.70437060,-0.70992550,-0.73733370
-2.12529130,-0.70107440,-0.70333290,-0.73080210
-2.12429130,-0.69551940,-0.69674030,-0.72536930
-2.12329130,-0.68892690,-0.69130750,-0.71877670
-2.12229130,-0.68782810,-0.68471490,-0.71224510
-2.12129130,-0.68233420,-0.67812230,-0.70681230
-2.12029130,-0.67793920,-0.67262850,-0.70028080
-2.11929130,-0.67354410,-0.66603590,-0.69478700
-2.11829130,-0.66914900,-0.65944330,-0.68825540
-2.11729130,-0.66365520,-0.65285070,-0.68282260
-2.11629130,-0.65919910,-0.64845560,-0.67629100
-2.11529130,-0.65370530,-0.64192400,-0.66969840
-2.11429130,-0.65040900,-0.63533150,-0.66536440
-2.11329130,-0.64491520,-0.62873890,-0.65773410
-2.11229130,-0.64161880,-0.62324500,-0.65230130
-2.11129130,-0.63502620,-0.61665240,-0.64680740
-2.11029130,-0.63173000,-0.61005980,-0.64027590
-2.10929130,-0.62623610,-0.60566470,-0.63264560
-2.10829130,-0.62293980,-0.59693560,-0.62721280
-2.10729130,-0.61738490,-0.59254060,-0.62391650
-2.10629130,-0.61298980,-0.58814550,-0.61628620
-2.10529130,-0.60859480,-0.57825660,-0.61085340
-2.10429130,-0.60200220,-0.57276280,-0.60645830
-2.10329130,-0.59760710,-0.56836770,-0.59992670
-2.10229130,-0.59321210,-0.56073740,-0.59339520
-2.10129130,-0.58661940,-0.55414480,-0.58576490
-2.10029130,-0.58332310,-0.54755220,-0.58027100
-2.09929130,-0.57776830,-0.54205830,-0.57483820
-2.09829130,-0.57337320,-0.53656450,-0.56830670
-2.09729130,-0.56787940,-0.52887310,-0.56177510
-2.09629130,-0.56238560,-0.52447810,-0.55738000
-2.09529130,-0.55689170,-0.51684770,-0.55084850
-2.09429130,-0.55469420,-0.51135390,-0.54211940
-2.09329130,-0.54590400,-0.50476130,-0.53778540
-2.09229130,-0.54144790,-0.49816870,-0.52905630
-2.09129130,-0.53705290,-0.49157610,-0.52356240
-2.09029130,-0.53046020,-0.48718100,-0.51703090
-2.08929130,-0.52496640,-0.47839090,-0.51159810
-2.08829130,-0.51947260,-0.47515570,-0.50396780
-2.08729130,-0.51507750,-0.46746430,-0.49847390
