Frequency,Channel A,Channel B,Channel C
(ms),(V),(V),(V)

-2.50133941,0.01428397,0.05371749,0.08497131
-2.50033941,0.00659260,0.04382859,0.07624222
-2.49933941,0.00000000,0.03400073,0.06421682
-2.49833941,-0.00335734,0.02411183,0.05445001
-2.49733941,-0.01104871,0.01312416,0.04462215
-2.49633941,-0.01764131,0.00213649,0.03589305
-2.49533941,-0.02203638,-0.00879014,0.02386766
-2.49433941,-0.02972775,-0.01758027,0.01410084
-2.49333941,-0.03632035,-0.02637041,0.00317422
-2.49233941,-0.04187523,-0.03735808,-0.00665364
-2.49133941,-0.04956660,-0.04828470,-0.01538274
-2.49033941,-0.05286290,-0.05817360,-0.02521060
-2.48933941,-0.06275180,-0.06586497,-0.03607618
-2.48833941,-0.06824563,-0.07685264,-0.04590404
-2.48733941,-0.07264070,-0.08668050,-0.05573190
-2.48633941,-0.07929435,-0.09766817,-0.06555976
-2.48533941,-0.08478818,-0.10645830,-0.07532658
-2.48433941,-0.09247955,-0.11634720,-0.08625320
-2.48333941,-0.09797338,-0.12623610,-0.09608106
-2.48233941,-0.10346720,-0.13606400,-0.10590890
-2.48133941,-0.11115860,-0.14595290,-0.11463800
-2.48033941,-0.11671350,-0.15694050,-0.12660240
-2.47933941,-0.12110850,-0.16573070,-0.13643020
-2.47833941,-0.12660240,-0.17665730,-0.14735690
-2.47733941,-0.13429370,-0.18654620,-0.15602490
-2.47633941,-0.13868880,-0.19643510,-0.16585280
-2.47533941,-0.14747890,-0.20522520,-0.17458190
-2.47433941,-0.15187400,-0.21511410,-0.18660720
-2.47333941,-0.15962640,-0.22713950,-0.19643510
-2.47233941,-0.16512020,-0.23373210,-0.20510320
-2.47133941,-0.17061410,-0.24362110,-0.21712850
-2.47033941,-0.17940420,-0.25460870,-0.22585760
-2.46933941,-0.18489800,-0.26443660,-0.23458670
-2.46833941,-0.18929310,-0.27322670,-0.24331580
-2.46733941,-0.19484800,-0.28201680,-0.25314370
-2.46633941,-0.20144060,-0.29190580,-0.26400930
-2.46533941,-0.20693440,-0.30393110,-0.27383710
-2.46433941,-0.21352700,-0.31162250,-0.28366500
-2.46333941,-0.22011960,-0.32151140,-0.29239410
-2.46233941,-0.22561350,-0.33140030,-0.30325970
-2.46133941,-0.23220610,-0.34238800,-0.31198880
-2.46033941,-0.23776100,-0.35111710,-0.32181660
-2.45933941,-0.24215600,-0.36100600,-0.33384200
-2.45833941,-0.24874860,-0.36979610,-0.34257110
-2.45733941,-0.25534120,-0.37968500,-0.35343670
-2.45633941,-0.26193380,-0.39061160,-0.36106700
-2.45533941,-0.26413140,-0.39830300,-0.37199370
-2.45433941,-0.27298250,-0.40929070,-0.38182150
-2.45333941,-0.27847640,-0.41698210,-0.39164940
-2.45233941,-0.28397020,-0.42687090,-0.39927970
-2.45133941,-0.29056280,-0.43779760,-0.41014530
-2.45033941,-0.29605660,-0.44658770,-0.41887440
-2.44933941,-0.30155050,-0.45427910,-0.42870220
-2.44833941,-0.30814310,-0.46416800,-0.43853010
-2.44733941,-0.31369800,-0.47076060,-0.44506170
-2.44633941,-0.31919180,-0.48168720,-0.45488950
-2.44533941,-0.32578440,-0.49047740,-0.46471740
-2.44433941,-0.33127820,-0.50036630,-0.47234770
-2.44333941,-0.33787080,-0.50805760,-0.48211450
-2.44233941,-0.34226590,-0.51794650,-0.49194240
-2.44133941,-0.35001830,-0.52667560,-0.50177030
-2.44033941,-0.35441340,-0.53546570,-0.51049930
-2.43933941,-0.36100600,-0.54535470,-0.51812960
-2.43833941,-0.36649980,-0.55414480,-0.52685870
-2.43733941,-0.36979610,-0.56177510,-0.53558780
-2.43633941,-0.37748750,-0.57166400,-0.54431690
-2.43533941,-0.38188250,-0.57935540,-0.55414480
-2.43433941,-0.38737640,-0.58924430,-0.56287390
-2.43333941,-0.39512880,-0.59583690,-0.57373950
-2.43233941,-0.40062260,-0.60352830,-0.58027100
-2.43133941,-0.40501770,-0.61335610,-0.58900010
-2.43033941,-0.41051150,-0.62104750,-0.59663050
-2.42933941,-0.41600540,-0.62873890,-0.60535960
-2.42833941,-0.42259800,-0.63752900,-0.61518740
-2.42733941,-0.42699300,-0.64631920,-0.62391650
-2.42633941,-0.43364670,-0.65504820,-0.63154680
-2.42533941,-0.44023930,-0.66273960,-0.63917710
-2.42433941,-0.44573310,-0.67043100,-0.64900500
-2.42333941,-0.45122690,-0.68031980,-0.65553650
-2.42233941,-0.45672080,-0.68691250,-0.66316690
-2.42133941,-0.46001710,-0.69564150,-0.67189600
-2.42033941,-0.46776950,-0.70223410,-0.68062510
-2.41933941,-0.47216460,-0.70992550,-0.68825540
-2.41833941,-0.47765840,-0.71761690,-0.69374920
-2.41733941,-0.48315220,-0.72640710,-0.70351610
-2.41633941,-0.48864610,-0.73299960,-0.71010860
-2.41533941,-0.49194240,-0.74063000,-0.71987550
-2.41433941,-0.49853500,-0.74722250,-0.72750580
-2.41333941,-0.50402880,-0.75601270,-0.73409840
-2.41233941,-0.50958370,-0.76150650,-0.73953120
-2.41133941,-0.51507750,-0.76700040,-0.74496400
-2.41033941,-0.52057140,-0.77249420,-0.75045780
-2.40933941,-0.52496640,-0.77792700,-0.75912580
-2.40833941,-0.53046020,-0.78561840,-0.76352100
-2.40733941,-0.53595410,-0.79111220,-0.77115120
-2.40633941,-0.54144790,-0.79770480,-0.77658400
-2.40533941,-0.54590400,-0.80319860,-0.78207790
-2.40433941,-0.55249660,-0.80869250,-0.78751070
-2.40333941,-0.55689170,-0.81418630,-0.79294350
-2.40233941,-0.56348430,-0.81528510,-0.79623970
-2.40133941,-0.56678060,-0.82077890,-0.79733850
-2.40033941,-0.57117570,-0.82181660,-0.80167260
-2.39933941,-0.57666950,-0.82401410,-0.80387010
-2.39833941,-0.58216330,-0.82621170,-0.80716640
-2.39733941,-0.58661940,-0.82840920,-0.81040170
-2.39633941,-0.58991580,-0.83390310,-0.81479670
-2.39533941,-0.59650840,-0.83719930,-0.81803200
-2.39433941,-0.60200220,-0.83939690,-0.82132830
-2.39333941,-0.60639730,-0.84379200,-0.82566230
-2.39233941,-0.61298980,-0.84928580,-0.83115610
-2.39133941,-0.61738490,-0.85258210,-0.83329260
-2.39033941,-0.62068120,-0.85477960,-0.83878650
-2.38933941,-0.62623610,-0.85917470,-0.84312050
-2.38833941,-0.63063110,-0.86460750,-0.84751560
-2.38733941,-0.63502620,-0.87010130,-0.85184960
-2.38633941,-0.63942130,-0.87669390,-0.85728240
-2.38533941,-0.64381640,-0.87999020,-0.86277620
-2.38433941,-0.64931020,-0.88658290,-0.86820900
-2.38333941,-0.65370530,-0.89317540,-0.87150530
-2.38233941,-0.65919910,-0.89866920,-0.87803690
-2.38133941,-0.66365520,-0.90416310,-0.88566720
-2.38033941,-0.66914900,-0.90745940,-0.88896350
-2.37933941,-0.67354410,-0.91179340,-0.89219870
-2.37833941,-0.67684040,-0.91399100,-0.89769260
-2.37733941,-0.68123550,-0.91838600,-0.90092780
-2.37633941,-0.68563060,-0.92058350,-0.90422420
-2.37533941,-0.69332190,-0.92278110,-0.90745940
-2.37433941,-0.69551940,-0.92607740,-0.90745940
-2.37333941,-0.69997560,-0.92937370,-0.91295330
-2.37233941,-0.70546940,-0.93157120,-0.91295330
-2.37133941,-0.70766690,-0.93267000,-0.91728720
-2.37033941,-0.71316080,-0.93596630,-0.91948480
-2.36933941,-0.71645710,-0.93706510,-0.92272010
-2.36833941,-0.72085210,-0.94146010,-0.92491760
-2.36733941,-0.72744480,-0.94146010,-0.92821390
-2.36633941,-0.72964230,-0.94475640,-0.92821390
-2.36533941,-0.73183980,-0.94585520,-0.93254790
-2.36433941,-0.73513610,-0.94695400,-0.93364670
-2.36333941,-0.74178980,-0.94915150,-0.93474540
-2.36233941,-0.74618480,-0.94915150,-0.93474540
-2.36133941,-0.74948110,-0.95128800,-0.93584420
-2.36033941,-0.75497500,-0.95238670,-0.93694300
-2.35933941,-0.76046880,-0.95348550,-0.93804170
-2.35833941,-0.76266630,-0.95348550,-0.94127700
-2.35733941,-0.76706140,-0.95788060,-0.94127700
-2.35633941,-0.77035770,-0.95678180,-0.94457330
-2.35533941,-0.77365400,-0.95678180,-0.94567200
-2.35433941,-0.77811010,-0.95788060,-0.94670980
-2.35333941,-0.78030770,-0.95788060,-0.94670980
-2.35233941,-0.78360400,-0.95897940,-0.94670980
-2.35133941,-0.78799900,-0.95678180,-0.94670980
-2.35033941,-0.79129530,-0.95788060,-0.94567200
-2.34933941,-0.79569040,-0.95678180,-0.94780860
-2.34833941,-0.79898670,-0.96117690,-0.94890730
-2.34733941,-0.80228300,-0.96337440,-0.95110490
-2.34633941,-0.80667810,-0.96557190,-0.95330240
-2.34533941,-0.80887560,-0.96776950,-0.95653770
-2.34433941,-0.81217190,-0.97106580,-0.95983400
-2.34333941,-0.81662800,-0.97326330,-0.96306920
-2.34233941,-0.82102300,-0.97436210,-0.96526680
-2.34133941,-0.82322060,-0.97985590,-0.96856300
-2.34033941,-0.82651690,-0.98205350,-0.97179830
-2.33933941,-0.82981320,-0.98425100,-0.97509460
-2.33833941,-0.83530700,-0.98864600,-0.98052740
-2.33733941,-0.83860330,-0.99304120,-0.98382370
-2.33633941,-0.83970210,-0.99737510,-0.98815770
-2.33533941,-0.84299840,-1.00177000,-0.99255280
-2.33433941,-0.84739350,-1.00396800,-0.99688680
-2.33333941,-0.85068980,-1.00946200,-1.00128200
-2.33233941,-0.85178850,-1.01385700,-1.00671500
-2.33133941,-0.85844220,-1.01605400,-1.00891200
-2.33033941,-0.85844220,-1.02154800,-1.01324600
-2.32933941,-0.86283730,-1.02374600,-1.01654300
-2.32833941,-0.86613360,-1.02814100,-1.01874000
-2.32733941,-0.86723230,-1.03143700,-1.02527200
-2.32633941,-0.87162740,-1.03693100,-1.02960600
-2.32533941,-0.87382490,-1.04016600,-1.03400100
-2.32433941,-0.87712120,-1.04566000,-1.03833500
-2.32333941,-0.87822000,-1.04785700,-1.04053200
-2.32233941,-0.88261500,-1.05115400,-1.04486600
-2.32133941,-0.88371380,-1.05335100,-1.04926100
-2.32033941,-0.88810890,-1.05774600,-1.05255800
-2.31933941,-0.88920770,-1.06324000,-1.05579300
-2.31833941,-0.89140520,-1.06543800,-1.06018800
-2.31733941,-0.89586130,-1.06873400,-1.06232500
-2.31633941,-0.89696010,-1.06983300,-1.06562100
-2.31533941,-0.90025640,-1.07422800,-1.06891700
-2.31433941,-0.90135510,-1.07642500,-1.07105400
-2.31333941,-0.90575020,-1.07972200,-1.07435000
-2.31233941,-0.90684900,-1.08185800,-1.07758500
-2.31133941,-0.90904650,-1.08515400,-1.08088100
-2.31033941,-0.91124400,-1.08845100,-1.08417800
-2.30933941,-0.91454040,-1.09174700,-1.08631400
-2.30833941,-0.91673790,-1.09394500,-1.08851200
-2.30733941,-0.91783670,-1.09614200,-1.09290700
-2.30633941,-0.91893540,-1.09834000,-1.09290700
-2.30533941,-0.92223170,-1.10163600,-1.09724100
-2.30433941,-0.92552800,-1.10383300,-1.10053700
-2.30333941,-0.92882430,-1.10713000,-1.10377200
-2.30233941,-0.92992310,-1.11042600,-1.10597000
-2.30133941,-0.93102180,-1.11262400,-1.11030400
-2.30033941,-0.93328040,-1.11482100,-1.11140300
-2.29933941,-0.93547800,-1.11701900,-1.11360000
-2.29833941,-0.93657670,-1.11811700,-1.11689700
-2.29733941,-0.93877420,-1.11811700,-1.11793400
-2.29633941,-0.94097180,-1.12141400,-1.12013200
-2.29533941,-0.94316930,-1.12464900,-1.12232900
-2.29433941,-0.94426810,-1.12574800,-1.12562600
-2.29333941,-0.94646560,-1.12794500,-1.12776200
-2.29233941,-0.94646560,-1.12904400,-1.12886100
-2.29133941,-0.94976190,-1.13124200,-1.12996000
-2.29033941,-0.95086070,-1.13014300,-1.13105800
-2.28933941,-0.95195940,-1.13124200,-1.13215700
-2.28833941,-0.95305820,-1.13234000,-1.13429400
-2.28733941,-0.95635450,-1.13343900,-1.13539200
-2.28633941,-0.95525570,-1.13343900,-1.13649100
-2.28533941,-0.95745330,-1.13673500,-1.13649100
-2.28433941,-0.95965080,-1.13673500,-1.13649100
-2.28333941,-0.96074960,-1.13783400,-1.13978800
-2.28233941,-0.96184840,-1.14003200,-1.14088600
-2.28133941,-0.96294710,-1.14113000,-1.14088600
-2.28033941,-0.96294710,-1.14113000,-1.14302300
-2.27933941,-0.96514460,-1.14003200,-1.14522000
-2.27833941,-0.96514460,-1.14332800,-1.14631900
-2.27733941,-0.96844090,-1.14332800,-1.14741800
-2.27633941,-0.96953970,-1.14442700,-1.14631900
-2.27533941,-0.96844090,-1.14662400,-1.14851700
-2.27433941,-0.97063850,-1.14442700,-1.14961500
-2.27333941,-0.97179830,-1.14552600,-1.15065300
-2.27233941,-0.97399580,-1.14662400,-1.15065300
-2.27133941,-0.97179830,-1.14772300,-1.15065300
-2.27033941,-0.97179830,-1.14772300,-1.15285100
-2.26933941,-0.97399580,-1.14882200,-1.15285100
-2.26833941,-0.97399580,-1.14882200,-1.15285100
-2.26733941,-0.97729210,-1.15101900,-1.15614700
-2.26633941,-0.97619340,-1.14992100,-1.15504800
-2.26533941,-0.97619340,-1.14882200,-1.15394900
-2.26433941,-0.98058840,-1.15101900,-1.15724600
-2.26333941,-0.97948970,-1.15101900,-1.15724600
-2.26233941,-0.97839090,-1.15211800,-1.15834500
-2.26133941,-0.97839090,-1.14882200,-1.15614700
-2.26033941,-0.98058840,-1.14882200,-1.15614700
-2.25933941,-0.98168720,-1.14882200,-1.15394900
-2.25833941,-0.98168720,-1.14882200,-1.15504800
-2.25733941,-0.98058840,-1.14772300,-1.15504800
-2.25633941,-0.98058840,-1.14552600,-1.15394900
-2.25533941,-0.98058840,-1.14552600,-1.15285100
-2.25433941,-0.98168720,-1.14442700,-1.15175200
-2.25333941,-0.98388480,-1.14442700,-1.15175200
-2.25233941,-0.98168720,-1.14552600,-1.15285100
-2.25133941,-0.98278590,-1.14442700,-1.15285100
-2.25033941,-0.98278590,-1.14442700,-1.15394900
-2.24933941,-0.98388480,-1.14332800,-1.15175200
-2.24833941,-0.98278590,-1.14442700,-1.15285100
-2.24733941,-0.98278590,-1.14552600,-1.15285100
-2.24633941,-0.98498350,-1.14442700,-1.15285100
-2.24533941,-0.98388480,-1.14442700,-1.15285100
-2.24433941,-0.98278590,-1.14442700,-1.15394900
-2.24333941,-0.98168720,-1.14552600,-1.15285100
-2.24233941,-0.98168720,-1.14332800,-1.15285100
-2.24133941,-0.98168720,-1.14222900,-1.15285100
-2.24033941,-0.98168720,-1.14113000,-1.15065300
-2.23933941,-0.98168720,-1.13893300,-1.15065300
-2.23833941,-0.98168720,-1.13673500,-1.14961500
-2.23733941,-0.97948970,-1.13893300,-1.14741800
-2.23633941,-0.97948970,-1.13783400,-1.14851700
-2.23533941,-0.97948970,-1.13453800,-1.14741800
-2.23433941,-0.97948970,-1.13453800,-1.14631900
-2.23333941,-0.97729210,-1.13343900,-1.14412200
-2.23233941,-0.97839090,-1.13234000,-1.14302300
-2.23133941,-0.97729210,-1.13234000,-1.14198500
-2.23033941,-0.97619340,-1.13124200,-1.14088600
-2.22933941,-0.97619340,-1.12904400,-1.13978800
-2.22833941,-0.97509460,-1.12574800,-1.13759000
-2.22733941,-0.97399580,-1.12251200,-1.13429400
-2.22633941,-0.97179830,-1.12355000,-1.13539200
-2.22533941,-0.97179830,-1.12031500,-1.13429400
-2.22433941,-0.96953970,-1.11921600,-1.13105800
-2.22333941,-0.97179830,-1.11811700,-1.13105800
-2.22233941,-0.96844090,-1.11701900,-1.12776200
-2.22133941,-0.96953970,-1.11372200,-1.12776200
-2.22033941,-0.96953970,-1.11372200,-1.12776200
-2.21933941,-0.96624340,-1.11042600,-1.12452700
-2.21833941,-0.96294710,-1.11042600,-1.12342800
-2.21733941,-0.96294710,-1.10932700,-1.12342800
-2.21633941,-0.96294710,-1.10603100,-1.12123100
-2.21533941,-0.96074960,-1.10273500,-1.11903300
-2.21433941,-0.95965080,-1.10163600,-1.11689700
-2.21333941,-0.95635450,-1.10053700,-1.11469900
-2.21233941,-0.95635450,-1.09834000,-1.11250200
-2.21133941,-0.95525570,-1.09504300,-1.11030400
-2.21033941,-0.95195940,-1.09504300,-1.11030400
-2.20933941,-0.95305820,-1.09064800,-1.10706900
-2.20833941,-0.95195940,-1.08735200,-1.10267400
-2.20733941,-0.94866320,-1.08405600,-1.09834000
-2.20633941,-0.94866320,-1.07862300,-1.09614200
-2.20533941,-0.94646560,-1.07752400,-1.09394500
-2.20433941,-0.94426810,-1.07312900,-1.09180800
-2.20333941,-0.94097180,-1.07203000,-1.08851200
-2.20233941,-0.93987300,-1.06763500,-1.08521500
-2.20133941,-0.93767550,-1.06433900,-1.08307900
-2.20033941,-0.93657670,-1.05994400,-1.07758500
-2.19933941,-0.93547800,-1.05774600,-1.07544900
-2.19833941,-0.93437920,-1.05225200,-1.06995500
-2.19733941,-0.93102180,-1.04895600,-1.06672000
-2.19633941,-0.92992310,-1.04346200,-1.06232500
-2.19533941,-0.92772560,-1.03906700,-1.05908900
-2.19433941,-0.92552800,-1.03363400,-1.05359500
-2.19333941,-0.92333050,-1.03033800,-1.04926100
-2.19233941,-0.92113290,-1.02704200,-1.04706400
-2.19133941,-0.91893540,-1.02264700,-1.04273000
-2.19033941,-0.91673790,-1.01935100,-1.04053200
-2.18933941,-0.91454040,-1.01495500,-1.03510000
-2.18833941,-0.91344150,-1.01165900,-1.03290200
-2.18733941,-0.91014530,-1.00726400,-1.02850700
-2.18633941,-0.90904650,-1.00506700,-1.02527200
-2.18533941,-0.90575020,-1.00177000,-1.02307400
-2.18433941,-0.90355270,-0.99957270,-1.01874000
-2.18333941,-0.90135510,-0.99407890,-1.01544400
-2.18233941,-0.89805880,-0.99084360,-1.01111000
-2.18133941,-0.89586130,-0.98644850,-1.00781300
-2.18033941,-0.89586130,-0.98095470,-1.00347900
-2.17933941,-0.88920770,-0.97765840,-0.99798560
-2.17833941,-0.88810890,-0.97326330,-0.99475030
-2.17733941,-0.88371380,-0.96776950,-0.99035530
-2.17633941,-0.88371380,-0.96447320,-0.98602120
-2.17533941,-0.87931880,-0.96007810,-0.98052740
-2.17433941,-0.87712120,-0.95458430,-0.97839090
-2.17333941,-0.87162740,-0.95025030,-0.97289710
-2.17233941,-0.87272610,-0.94695400,-0.96856300
-2.17133941,-0.86833110,-0.94146010,-0.96306920
-2.17033941,-0.86723230,-0.93706510,-0.95983400
-2.16933941,-0.86283730,-0.93376870,-0.95653770
-2.16833941,-0.85844220,-0.92827490,-0.95220360
-2.16733941,-0.85844220,-0.92168230,-0.94670980
-2.16633941,-0.85178850,-0.91948480,-0.94347450
-2.16533941,-0.84959100,-0.91508970,-0.93804170
-2.16433941,-0.84739350,-0.91069470,-0.93364670
-2.16333941,-0.84299840,-0.90636060,-0.93035040
-2.16233941,-0.83970210,-0.90196560,-0.92491760
-2.16133941,-0.83640580,-0.89537300,-0.91948480
-2.16033941,-0.83530700,-0.89207670,-0.91618850
-2.15933941,-0.82981320,-0.88658290,-0.91295330
-2.15833941,-0.82761570,-0.88218770,-0.90745940
-2.15733941,-0.82322060,-0.87669390,-0.90202660
-2.15633941,-0.81882550,-0.87229880,-0.89769260
-2.15533941,-0.81772670,-0.86680500,-0.89329750
-2.15433941,-0.81436940,-0.86356970,-0.88786470
-2.15333941,-0.81107310,-0.85807590,-0.88346960
-2.15233941,-0.80667810,-0.85258210,-0.87913560
-2.15133941,-0.80338170,-0.84928580,-0.87474050
-2.15033941,-0.80118420,-0.84489070,-0.87040650
-2.14933941,-0.79459160,-0.83939690,-0.86497370
-2.14833941,-0.79349290,-0.83390310,-0.85947990
-2.14733941,-0.79019650,-0.82731040,-0.85404710
-2.14633941,-0.78580150,-0.82181660,-0.84965210
-2.14533941,-0.78250520,-0.81528510,-0.84202170
-2.14433941,-0.77811010,-0.80979120,-0.83549020
-2.14333941,-0.77365400,-0.80209980,-0.83115610
-2.14233941,-0.76816020,-0.79770480,-0.82566230
-2.14133941,-0.76486380,-0.79111220,-0.81913070
-2.14033941,-0.76156760,-0.78561840,-0.81150040
-2.13933941,-0.75717250,-0.77902570,-0.80716640
-2.13833941,-0.75497500,-0.77359290,-0.80057380
-2.13733941,-0.74838230,-0.76809910,-0.79404220
-2.13633941,-0.74398730,-0.76260530,-0.79080690
-2.13533941,-0.74288850,-0.75601270,-0.78531310
-2.13433941,-0.73959220,-0.75051890,-0.77878160
-2.13333941,-0.73623490,-0.74392620,-0.77444760
-2.13233941,-0.73183980,-0.73843240,-0.76785490
-2.13133941,-0.72744480,-0.73409840,-0.76132340
-2.13033941,-0.72195090,-0.72750580,-0.75479190
-2.12933941,-0.71755580,-0.72311070,-0.74935900
-2.12833941,-0.71206200,-0.71651810,-0.74496400
-2.12733941,-0.70986450,-0.70882680,-0.73843240
-2.12633941,-0.70327190,-0.70333290,-0.73190090
-2.12533941,-0.70217310,-0.69674030,-0.72427050
-2.12433941,-0.69551940,-0.69130750,-0.72097420
-2.12333941,-0.69222320,-0.68471490,-0.71114640
-2.12233941,-0.68563060,-0.67812230,-0.70351610
-2.12133941,-0.68013670,-0.67262850,-0.70137950
-2.12033941,-0.67903790,-0.66493710,-0.69374920
-2.11933941,-0.67464290,-0.65834450,-0.68825540
-2.11833941,-0.67024780,-0.65285070,-0.68282260
-2.11733941,-0.66365520,-0.64631920,-0.67519230
-2.11633941,-0.66029790,-0.64082530,-0.66969840
-2.11533941,-0.65590280,-0.63533150,-0.66316690
-2.11433941,-0.65260650,-0.62873890,-0.65773410
-2.11333941,-0.64711270,-0.62214620,-0.65010370
-2.11233941,-0.64271760,-0.61775120,-0.64467100
-2.11133941,-0.63722380,-0.61115860,-0.63807840
-2.11033941,-0.63282870,-0.60462700,-0.63264560
-2.10933941,-0.62733490,-0.59803440,-0.62831160
-2.10833941,-0.62184100,-0.59034310,-0.62171890
-2.10733941,-0.61958250,-0.58704670,-0.61518740
-2.10633941,-0.61408870,-0.57935540,-0.61195210
-2.10533941,-0.60859480,-0.57276280,-0.60535960
-2.10433941,-0.60419970,-0.56836770,-0.59992670
-2.10333941,-0.59760710,-0.56177510,-0.59449390
-2.10233941,-0.59431080,-0.55634230,-0.58796240
-2.10133941,-0.58881700,-0.55084850,-0.58136980
-2.10033941,-0.58216330,-0.54535470,-0.57593700
-2.09933941,-0.57886700,-0.53986080,-0.57050420
-2.09833941,-0.57337320,-0.53436700,-0.56501040
-2.09733941,-0.56678060,-0.52777440,-0.56067630
-2.09633941,-0.56348430,-0.52228060,-0.55304600
-2.09533941,-0.55908920,-0.51574900,-0.54865100
-2.09433941,-0.55469420,-0.51025520,-0.53992190
-2.09333941,-0.54700280,-0.50366250,-0.53448900
-2.09233941,-0.54364540,-0.49597120,-0.52795750
-2.09133941,-0.53705290,-0.49047740,-0.52252470
-2.09033941,-0.53155900,-0.48388480,-0.51593210
-2.08933941,-0.52716400,-0.47729220,-0.50830180
-2.08833941,-0.52057140,-0.47076060,-0.50396780
-2.08733941,-0.51617630,-0.46416800,-0.49743620
