Frequency,Channel A,Channel B,Channel C
(ms),(V),(V),(V)

-10.00334560,-0.01632890,-0.01358198,-0.05112318
-10.00134560,-0.00824075,0.01068246,-0.04303504
-9.99934560,0.00259431,0.02701135,-0.03494689
-9.99734560,0.01617629,0.03235258,-0.02960566
-9.99534560,0.02701135,0.03235258,-0.02151752
-9.99334560,0.04059333,0.04318764,-0.01617629
-9.99134560,0.04868148,0.04852887,-0.01083506
-9.98934560,0.05951654,0.05936394,0.00000000
-9.98734560,0.07309853,0.07554023,0.00793554
-9.98534560,0.08393358,0.07828714,0.01602368
-9.98334560,0.09202173,0.08362837,0.02136491
-9.98134560,0.10285680,0.05127579,0.02945306
-9.97934560,0.11643880,0.09980466,0.03754120
-9.97734560,0.12727380,0.10529850,0.04562935
-9.97534560,0.13810890,0.11872790,0.05356489
-9.97334560,0.14894400,0.12147480,0.06439995
-9.97134560,0.15977900,0.13230990,0.07508241
-9.96934560,0.17336100,0.14573920,0.08591747
-9.96734560,0.18144910,0.15123310,0.09125870
-9.96534560,0.19503110,0.14039800,0.09934685
-9.96334560,0.20327190,0.16466240,0.10728240
-9.96134560,0.21670130,0.17824440,0.11811740
-9.95934560,0.22753630,0.19167380,0.12879990
-9.95734560,0.23837140,0.19976190,0.14222930
-9.95534560,0.24920640,0.21334390,0.15306430
-9.95334560,0.26019410,0.21334390,0.16099990
-9.95134560,0.27362350,0.23501400,0.17183490
-9.94934560,0.28445850,0.24569650,0.18251740
-9.94734560,0.29269930,0.25653160,0.19594680
-9.94534560,0.30353440,0.26736660,0.20678180
-9.94334560,0.31436940,0.27820170,0.22021120
-9.94134560,0.32520450,0.29712490,0.23089370
-9.93934560,0.33878650,0.30521300,0.24432300
-9.93734560,0.34687460,0.31604810,0.25500550
-9.93534560,0.36045660,0.34031250,0.26584060
-9.93334560,0.36854470,0.33481870,0.27926990
-9.93134560,0.37937980,0.35374190,0.28995240
-9.92934560,0.38746800,0.36732390,0.30612870
-9.92734560,0.39830300,0.38075320,0.32215230
-9.92534560,0.40913810,0.38624710,0.33558170
-9.92334560,0.41997310,0.40517030,0.34901110
-9.92134560,0.43080820,0.41585280,0.36244050
-9.91934560,0.44439020,0.44561100,0.37327550
-9.91734560,0.44988400,0.44026980,0.38395800
-9.91534560,0.46071910,0.45369920,0.39738740
-9.91334560,0.47430100,0.47262240,0.41356370
-9.91134560,0.47964230,0.49429250,0.42958730
-9.90934560,0.49047740,0.50238070,0.44576360
-9.90734560,0.50131240,0.50772190,0.45919300
-9.90534560,0.51214750,0.52405080,0.46728120
-9.90334560,0.52038820,0.53748020,0.48605180
-9.90134560,0.53122330,0.55915030,0.50207540
-9.89934560,0.54205830,0.57257960,0.52359290
-9.89734560,0.55014650,0.59424980,0.54236360
-9.89534560,0.55823460,0.60767910,0.55853990
-9.89334560,0.56906970,0.62934930,0.57471620
-9.89134560,0.57990480,0.64827250,0.59348670
-9.88934560,0.58539860,0.58066780,0.60416920
-9.88734560,0.59623370,0.67528380,0.62568670
-9.88534560,0.60432180,0.70763640,0.65529240
-9.88334560,0.61790380,0.74548290,0.68749240
-9.88134560,0.62065070,0.76715300,0.71969230
-9.87934560,0.63148580,0.79416430,0.74929800
-9.87734560,0.63957390,0.82377000,0.77615670
-9.87534560,0.64766200,0.84818700,0.80026860
-9.87334560,0.65849710,0.85627510,0.81369790
-9.87134560,0.66399100,0.88328650,0.83246860
-9.86934560,0.67482600,0.89671590,0.85398610
-9.86734560,0.68291410,0.92372730,0.87550360
-9.86534560,0.68566110,0.92647420,0.89686850
-9.86334560,0.69924310,0.96706750,0.91579170
-9.86134560,0.70733120,0.98324380,0.93456230
-9.85934560,0.71541940,0.99942010,0.95607980
-9.85734560,0.72625440,1.01559600,0.97210350
-9.85534560,0.73174820,1.03726600,0.98553290
-9.85334560,0.73983640,1.04810200,1.00170900
-9.85134560,0.74533020,1.05878400,1.01513900
-9.84934560,0.75341840,1.07511300,1.03665600
-9.84734560,0.75891220,1.10746600,1.06351500
-9.84534560,0.76425340,1.12913600,1.08762700
-9.84334560,0.77234160,1.13981800,1.11173800
-9.84134560,0.78317670,1.16148800,1.12516800
-9.83934560,0.79141740,1.18850000,1.14668500
-9.83734560,0.79401170,1.20742300,1.16286200
-9.83534560,0.80225250,1.21825800,1.17888500
-9.83334560,0.81034060,1.23718100,1.19506200
-9.83134560,0.81568180,1.25335700,1.21383200
-9.82934560,0.82117570,1.27228100,1.23000800
-9.82734560,0.82666950,1.28036900,1.24603200
-9.82534560,0.83475760,1.30463300,1.25946200
-9.82334560,0.84009890,1.31272100,1.27823200
-9.82134560,0.84559270,1.33439100,1.29715500
-9.81934560,0.85093390,1.35590900,1.31058500
-9.81734560,0.85642780,1.36674400,1.33469700
-9.81534560,0.86176900,1.38307300,1.34812600
-9.81334560,0.86451590,1.39375500,1.36430200
-9.81134560,0.87260410,1.41267800,1.37498500
-9.80934560,0.87809790,1.42885500,1.39375500
-9.80734560,0.88084480,1.44518400,1.40718500
-9.80534560,0.88618610,1.46136000,1.42595500
-9.80334560,0.88893290,1.48562400,1.45022000
-9.80134560,0.89702110,1.52881200,1.49050800
-9.79934560,0.89976800,1.55857000,1.52545500
-9.79734560,0.91060310,1.54773500,1.55231300
-9.79534560,0.90785620,1.60984600,1.58176700
-9.79334560,0.91060310,1.63960400,1.60587800
-9.79134560,0.91335000,1.66386900,1.63014300
-9.78934560,0.91869120,1.67745100,1.65425500
-9.78734560,0.92143820,1.69912100,1.67302500
-9.78534560,0.92693200,1.72063900,1.68645500
-9.78334560,0.92952630,1.72872700,1.69988400
-9.78134560,0.93502010,1.74230900,1.71606000
-9.77934560,0.93776700,1.76123200,1.73223700
-9.77734560,0.94036140,1.78015500,1.75100700
-9.77534560,0.94310830,1.79892600,1.76703100
-9.77334560,0.96218410,1.85035400,1.78854800
-9.77134560,0.94860210,1.84226600,1.82074800
-9.76934560,0.95134900,1.88011200,1.85035400
-9.76734560,0.95134900,1.90712400,1.87996000
-9.76534560,0.95394330,1.92330000,1.90132500
-9.76334560,0.95669030,1.94222300,1.92024800
-9.76134560,0.95669030,1.96923400,1.94161300
-9.75934560,0.96218410,1.98266400,1.96053600
-9.75734560,0.96218410,1.99624600,1.98724200
-9.75534560,0.96218410,2.03134500,2.00875900
-9.75334560,0.96477840,2.04752200,2.02493600
-9.75134560,0.95134900,1.99349900,2.03302400
-9.74934560,0.96752530,2.07178600,2.04904800
-9.74734560,0.96752530,2.08262100,2.06247700
-9.74534560,0.97027220,2.09879700,2.07590700
-9.74334560,0.97027220,2.10688600,2.08674100
-9.74134560,0.96752530,2.11237900,2.09742400
-9.73934560,0.97027220,2.12580900,2.10551200
-9.73734560,0.97027220,2.13389700,2.11360000
-9.73534560,0.97027220,2.12580900,2.12153600
-9.73334560,0.97027220,2.14473200,2.12703000
-9.73134560,0.97027220,2.14747900,2.13237100
-9.72934560,0.97027220,2.15831400,2.14045900
-9.72734560,0.98644850,2.00967500,2.14045900
-9.72534560,0.97027220,2.16090800,2.14839500
-9.72334560,0.96752530,2.16914900,2.15114100
-9.72134560,0.96752530,2.16365500,2.15388800
-9.71934560,0.97027220,2.16914900,2.15114100
-9.71734560,0.96477840,2.16090800,2.15114100
-9.71534560,0.96477840,2.16365500,2.15388800
-9.71334560,0.96218410,2.16640200,2.15114100
-9.71134560,0.95943720,2.15831400,2.15114100
-9.70934560,0.95943720,2.16365500,2.14839500
-9.70734560,0.95943720,2.15831400,2.14839500
-9.70534560,0.97027220,1.98266400,2.14839500
-9.70334560,0.95394330,2.15556700,2.14305300
-9.70134560,0.95394330,2.15831400,2.14305300
-9.69934560,0.95134900,2.15831400,2.14580000
-9.69734560,0.94585520,2.15556700,2.14580000
-9.69534560,0.94310830,2.15282000,2.14305300
-9.69334560,0.94036140,2.14213800,2.13771200
-9.69134560,0.94036140,2.14473200,2.13237100
-9.68934560,0.93502010,2.14213800,2.12703000
-9.68734560,0.93502010,2.12580900,2.11619400
-9.68534560,0.93227320,2.11772100,2.11619400
-9.68334560,0.92418500,2.12046800,2.11085300
-9.68134560,0.92418500,2.11237900,2.10551200
-9.67934560,0.91869120,2.10963200,2.10276500
-9.67734560,0.91609690,2.10154400,2.09467700
-9.67534560,0.91335000,2.09345600,2.08674100
-9.67334560,0.90526190,2.07453300,2.07590700
-9.67134560,0.90526190,2.06919200,2.06522400
-9.66934560,0.89976800,2.06644500,2.05713600
-9.66734560,0.89442680,2.05026900,2.04904800
-9.66534560,0.88893290,2.05026900,2.03836500
-9.66334560,0.88618610,2.03668700,2.03302400
-9.66134560,0.88084480,2.02051000,2.01959500
-9.65934560,0.87535100,2.01516900,2.00875900
-9.65734560,0.87000980,1.99884000,1.99807700
-9.65534560,0.86726280,1.99349900,1.98724200
-9.65334560,0.86176900,1.97457600,1.97930700
-9.65134560,0.85642780,1.97182900,1.96847100
-9.64934560,0.85368080,1.95565200,1.95778900
-9.64734560,0.84559270,1.94222300,1.94710700
-9.64534560,0.83750460,1.93413500,1.93367700
-9.64334560,0.83201070,1.87461800,1.92284200
-9.64134560,0.82666950,1.90437700,1.90407200
-9.63934560,0.82117570,1.88820000,1.89064200
-9.63734560,0.81842880,1.88011200,1.87996000
-9.63534560,0.80759370,1.86378300,1.86653000
-9.63334560,0.80225250,1.84760700,1.85310100
-9.63134560,0.79401170,1.82868400,1.83692500
-9.62934560,0.78867050,1.82059600,1.82349500
-9.62734560,0.78058230,1.80167300,1.80731900
-9.62534560,0.77508850,1.79083800,1.79129500
-9.62334560,0.76974730,1.78015500,1.77786600
-9.62134560,0.76150650,1.76123200,1.76443700
-9.61934560,0.75341840,1.72613200,1.74826000
-9.61734560,0.74792460,1.72872700,1.72949000
-9.61534560,0.73708950,1.70980300,1.71880700
-9.61334560,0.73449520,1.69362700,1.69729000
-9.61134560,0.72366010,1.67470400,1.67851900
-9.60934560,0.71541940,1.65318600,1.66234300
-9.60734560,0.70733120,1.64235100,1.64891300
-9.60534560,0.69924310,1.62617500,1.62739600
-9.60334560,0.69100230,1.59916400,1.61137200
-9.60134560,0.68291410,1.59092300,1.59519600
-9.59934560,0.67482600,1.56940500,1.57642500
-9.59734560,0.66673790,1.60175800,1.55490800
-9.59534560,0.65849710,1.53430600,1.53613700
-9.59334560,0.65040900,1.50988900,1.51996100
-9.59134560,0.64232080,1.49645900,1.50119000
-9.58934560,0.63423270,1.48028300,1.48242000
-9.58734560,0.62599190,1.45861300,1.46364900
-9.58534560,0.61515690,1.43434900,1.44487800
-9.58334560,0.60706870,1.41267800,1.42336100
-9.58134560,0.59898060,1.36949100,1.39909600
-9.57934560,0.58814550,1.37223800,1.38032600
-9.57734560,0.57990480,1.35590900,1.36155500
-9.57534560,0.56906970,1.33439100,1.34278500
-9.57334560,0.56098160,1.31012700,1.32126700
-9.57134560,0.55548780,1.29379800,1.29975000
-9.56934560,0.54465260,1.27228100,1.27823200
-9.56734560,0.53381760,1.23977500,1.25686700
-9.56534560,0.52298250,1.23168700,1.23260300
-9.56334560,0.51214750,1.20467600,1.21383200
-9.56134560,0.50680630,1.18850000,1.19231500
-9.55934560,0.49322430,1.16423500,1.17095000
-9.55734560,0.48513610,1.14790600,1.14943200
-9.55534560,0.47430100,1.12089500,1.13066200
-9.55334560,0.46346600,1.09388400,1.10639700
-9.55134560,0.45263090,1.12913600,1.08228500
-9.54934560,0.44439020,1.05069600,1.06076800
-9.54734560,0.43630200,1.02917800,1.04199700
-9.54534560,0.42546700,1.01284900,1.01773300
-9.54334560,0.41463190,0.98858500,0.99896230
-9.54134560,0.40379690,0.96706750,0.97210350
-9.53934560,0.39570870,0.94005610,0.95058600
-9.53734560,0.38212670,0.91838600,0.92647420
-9.53534560,0.37129170,0.87779270,0.90236230
-9.53334560,0.36305090,0.87245150,0.87809790
-9.53134560,0.35221580,0.85078130,0.85658040
-9.52934560,0.34138080,0.83185810,0.83780980
-9.52734560,0.33054570,0.81034060,0.81369790
-9.52534560,0.31711630,0.78332920,0.78943350
-9.52334560,0.30887560,0.76165910,0.76532170
-9.52134560,0.29804050,0.73739470,0.74380420
-9.51934560,0.28720550,0.71313020,0.71969230
-9.51734560,0.27637040,0.68611890,0.69817480
-9.51534560,0.26828230,0.66719570,0.67406300
-9.51334560,0.25470030,0.64018430,0.64979860
-9.51134560,0.24386520,0.61851420,0.62843360
-9.50934560,0.23303020,0.59424980,0.60416920
-9.50734560,0.21944820,0.57257960,0.58265170
-9.50534560,0.21136000,0.59424980,0.55579290
-9.50334560,0.20052500,0.52664510,0.53168110
-9.50134560,0.18694300,0.50238070,0.51016360
-9.49934560,0.17610790,0.48345740,0.48605180
-9.49734560,0.16801980,0.45919300,0.46178730
-9.49534560,0.15718470,0.42668780,0.44042240
-9.49334560,0.14634970,0.41325840,0.41615800
-9.49134560,0.13276770,0.38075320,0.39204620
-9.48934560,0.12193260,0.35114760,0.36793430
-9.48734560,0.11369190,0.33481870,0.34107560
-9.48534560,0.10026250,0.31330120,0.32215230
-9.48334560,0.08942742,0.29437800,0.30078740
-9.48134560,0.08118667,0.26736660,0.27392870
-9.47934560,0.06775729,0.24844340,0.25241120
-9.47734560,0.05676962,0.21868510,0.22814670
-9.47534560,0.04593456,0.19976190,0.20128800
-9.47334560,0.03509950,0.17015630,0.17717620
-9.47134560,0.02426444,0.15382740,0.15565860
-9.46934560,0.01342937,0.12422170,0.13154680
-9.46734560,0.00259431,0.10529850,0.11002930
-9.46534560,-0.00824075,0.08362837,0.08851178
-9.46334560,-0.01907581,0.05661702,0.06439995
-9.46134560,-0.03265779,0.03769381,0.04013551
-9.45934560,-0.04074594,-0.00549384,0.01877060
-9.45734560,-0.05692223,-0.01083506,-0.00549384
-9.45534560,-0.06241607,-0.03250519,-0.02960566
-9.45334560,-0.07325113,-0.05676962,-0.05371749
-9.45134560,-0.08683310,-0.07843975,-0.07523501
-9.44934560,-0.09492125,-0.09461604,-0.09675253
-9.44734560,-0.10575630,-0.12162740,-0.12086440
-9.44534560,-0.11659140,-0.14589180,-0.14512880
-9.44334560,-0.13017340,-0.16222070,-0.16924060
-9.44134560,-0.13826150,-0.19182640,-0.19350510
-9.43934560,-0.14909660,-0.21624340,-0.21487000
-9.43734560,-0.16267850,-0.23776100,-0.23379320
-9.43534560,-0.17076670,-0.25134290,-0.25790500
-9.43334560,-0.18160180,-0.28918930,-0.28201680
-9.43134560,-0.18984250,-0.30261870,-0.30353440
-9.42934560,-0.20342450,-0.32428880,-0.32505190
-9.42734560,-0.21425950,-0.35130020,-0.34916370
-9.42534560,-0.22234770,-0.37281770,-0.37342810
-9.42334560,-0.23592970,-0.39448790,-0.39479310
-9.42134560,-0.24127090,-0.41341110,-0.41631060
-9.41934560,-0.25210600,-0.44042240,-0.44057500
-9.41734560,-0.26294100,-0.45934560,-0.46193990
-9.41534560,-0.27118180,-0.48361010,-0.48620440
-9.41334560,-0.28201680,-0.52145650,-0.50772190
-9.41134560,-0.29544620,-0.52679770,-0.53183370
-9.40934560,-0.30368700,-0.54846780,-0.55060430
-9.40734560,-0.31452200,-0.56739100,-0.57212190
-9.40534560,-0.32261020,-0.59165550,-0.59363940
-9.40334560,-0.33069830,-0.61057870,-0.61775120
-9.40134560,-0.34153340,-0.63484310,-0.63926870
-9.39934560,-0.35236840,-0.65651320,-0.65803930
-9.39734560,-0.36060920,-0.68627150,-0.68230370
-9.39534560,-0.37144430,-0.69695400,-0.70366870
-9.39334560,-0.38227930,-0.71862410,-0.72259190
-9.39134560,-0.39036750,-0.74029420,-0.74136250
-9.38934560,-0.39845560,-0.76730560,-0.76547430
-9.38734560,-0.40669640,-0.78622880,-0.78699180
-9.38534560,-0.41753140,-0.80240510,-0.80850930
-9.38334560,-0.43096080,-0.71328290,-0.82727990
-9.38134560,-0.43370770,-0.84025150,-0.85139170
-9.37934560,-0.44194850,-0.86985710,-0.87016240
-9.37734560,-0.45278350,-0.88069220,-0.88908560
-9.37534560,-0.45812480,-0.89961540,-0.90510920
-9.37334560,-0.47170670,-0.91579170,-0.92662680
-9.37134560,-0.47704800,-0.93471490,-0.94814430
-9.36934560,-0.48528870,-0.95638500,-0.96691490
-9.36734560,-0.49612380,-0.97530820,-0.98309120
-9.36534560,-0.50421190,-0.99957270,-1.00445600
-9.36334560,-0.50970580,-1.01300200,-1.02063200
-9.36134560,-0.52054080,-1.03467200,-1.04215000
-9.35934560,-0.52588210,-1.05084800,-1.05817400
-9.35734560,-0.53671710,-1.06443000,-1.07709700
-9.35534560,-0.54480530,-1.08060700,-1.09312000
-9.35334560,-0.55029910,-1.10227700,-1.10929700
-9.35134560,-0.56113420,-1.12104700,-1.13081400
-9.34934560,-0.56647540,-1.13188300,-1.14683800
-9.34734560,-0.57196920,-1.14805900,-1.16301400
-9.34534560,-0.58005740,-1.16164100,-1.17903800
-9.34334560,-0.58829810,-1.16972900,-1.19246700
-9.34134560,-0.59363940,-1.19399300,-1.20864400
-9.33934560,-0.60172750,-1.21032200,-1.22207300
-9.33734560,-0.59638630,-1.26434500,-1.24084400
-9.33534560,-0.61256250,-1.24267500,-1.25702000
-9.33334560,-0.62080330,-1.25076300,-1.26770200
-9.33134560,-0.62339760,-1.26693900,-1.27838500
-9.32934560,-0.63163830,-1.26968600,-1.28922000
-9.32734560,-0.63972650,-1.28326800,-1.29990200
-9.32534560,-0.64522030,-1.29135600,-1.31073700
-9.32334560,-0.65056160,-1.29944400,-1.32416700
-9.32134560,-0.65864970,-1.32096200,-1.32950800
-9.31934560,-0.66139660,-1.31836800,-1.34293700
-9.31734560,-0.66948480,-1.32905000,-1.35102500
-9.31534560,-0.67497860,-1.32905000,-1.35362000
-9.31334560,-0.68031980,-1.33988500,-1.35896100
-9.31134560,-0.68581370,-1.34263200,-1.36170800
-9.30934560,-0.68856060,-1.34797300,-1.36979600
-9.30734560,-0.69390180,-1.35072000,-1.37513700
-9.30534560,-0.69939570,-1.35606100,-1.37513700
-9.30334560,-0.70748380,-1.35606100,-1.38047900
-9.30134560,-0.71023070,-1.35346700,-1.37788400
-9.29934560,-0.71297760,-1.34797300,-1.37788400
-9.29734560,-0.72106580,-1.36430200,-1.37788400
-9.29534560,-0.72381270,-1.35346700,-1.37513700
-9.29334560,-0.72915390,-1.34537900,-1.37239000
-9.29134560,-0.71557190,-1.40199600,-1.36979600
-9.28934560,-0.73724210,-1.33988500,-1.36704900
-9.28734560,-0.73998900,-1.32645600,-1.35636700
-9.28534560,-0.74273590,-1.31562100,-1.34293700
-9.28334560,-0.74807720,-1.30203900,-1.33210200
-9.28134560,-0.75082410,-1.29135600,-1.31333200
-9.27934560,-0.75631790,-1.27502700,-1.30264900
-9.27734560,-0.75631790,-1.26434500,-1.28922000
-9.27534560,-0.75906480,-1.26434500,-1.27579000
-9.27334560,-0.76165910,-1.23458700,-1.26236100
-9.27134560,-0.76715300,-1.21841000,-1.24618500
-9.26934560,-0.76715300,-1.20757500,-1.23550200
-9.26734560,-0.77249420,-1.18331100,-1.21398500
-9.26534560,-0.77524110,-1.15889400,-1.18712600
-9.26334560,-0.77798800,-1.12104700,-1.14958500
-9.26134560,-0.78073500,-1.08335400,-1.10929700
-9.25934560,-0.78073500,-1.04825400,-1.07435000
-9.25734560,-0.78073500,-1.01300200,-1.04474400
-9.25534560,-0.78332920,-0.99682580,-1.02597400
-9.25334560,-0.78882310,-0.97790250,-1.00995000
-9.25134560,-0.77798800,-0.92387990,-1.00186200
-9.24934560,-0.78882310,-0.95638500,-0.98568550
-9.24734560,-0.79157000,-0.94829690,-0.97759740
-9.24534560,-0.77524110,-0.98873760,-0.96416800
-9.24334560,-0.79416430,-0.93196800,-0.96157370
-9.24134560,-0.79157000,-0.92128560,-0.95073860
-9.23934560,-0.79416430,-0.91304480,-0.94280310
-9.23734560,-0.79416430,-0.90770360,-0.93471490
-9.23534560,-0.79416430,-0.89427420,-0.92937370
-9.23334560,-0.79416430,-0.88878040,-0.92128560
-9.23134560,-0.79416430,-0.88603340,-0.91319740
-9.22934560,-0.79416430,-0.88878040,-0.90785620
-9.22734560,-0.79691120,-0.86985710,-0.90251490
-9.22534560,-0.79416430,-0.86726280,-0.89442680
-9.22334560,-0.79157000,-0.85642780,-0.88908560
-9.22134560,-0.79157000,-0.85093390,-0.88099740
-9.21934560,-0.79157000,-0.84559270,-0.87565620
-9.21734560,-0.78882310,-0.84559270,-0.87290930
-9.21534560,-0.78882310,-0.83475760,-0.87016240
-9.21334560,-0.78882310,-0.83201070,-0.86482110
-9.21134560,-0.78882310,-0.82132830,-0.85673300
-9.20934560,-0.78607620,-0.81049320,-0.84879740
-9.20734560,-0.78332920,-0.79965820,-0.83796240
-9.20534560,-0.78073500,-0.79157000,-0.82727990
-9.20334560,-0.78073500,-0.78348180,-0.82193870
-9.20134560,-0.77524110,-0.77264680,-0.81385060
-9.19934560,-0.77249420,-0.95089120,-0.80042120
-9.19734560,-0.77249420,-0.76181170,-0.80301550
-9.19534560,-0.76715300,-0.76181170,-0.80301550
-9.19334560,-0.76715300,-0.75372360,-0.79233300
-9.19134560,-0.76715300,-0.74838230,-0.78699180
-9.18934560,-0.76165910,-0.74838230,-0.78165060
-9.18734560,-0.75906480,-0.74029420,-0.77630940
-9.18534560,-0.75631790,-0.73754730,-0.77356240
-9.18334560,-0.75082410,-0.72945920,-0.77081550
-9.18134560,-0.74807720,-0.72945920,-0.76822120
-9.17934560,-0.74273590,-0.72137100,-0.76288000
-9.17734560,-0.74273590,-0.72137100,-0.75738610
-9.17534560,-0.73724210,-0.70519470,-0.75204490
-9.17334560,-0.73190090,-0.70778900,-0.74395670
-9.17134560,-0.73190090,-0.69695400,-0.74136250
-9.16934560,-0.72381270,-0.68352460,-0.72793310
-9.16734560,-0.72106580,-0.67543640,-0.71984490
-9.16534560,-0.71557190,-0.66994260,-0.70916250
-9.16334560,-0.71023070,-0.65926020,-0.70107440
-9.16134560,-0.70473690,-0.64567820,-0.69298620
-9.15934560,-0.70214260,-0.63759010,-0.68230370
-9.15734560,-0.69390180,-0.63224880,-0.67680990
-9.15534560,-0.69115490,-0.62400810,-0.66612740
-9.15334560,-0.68856060,-0.51336830,-0.65803930
-9.15134560,-0.68031980,-0.60783180,-0.65544500
-9.14934560,-0.67497860,-0.60249050,-0.64735690
-9.14734560,-0.66948480,-0.59165550,-0.63926870
-9.14534560,-0.66689050,-0.58356730,-0.63392750
-9.14334560,-0.65864970,-0.57822610,-0.62583940
-9.14134560,-0.65056160,-0.57273230,-0.62049810
