Frequency,Channel A,Channel B,Channel C
(ms),(V),(V),(V)

-2.50133738,0.01098767,0.05151996,0.08387254
-2.50033738,0.00549384,0.04279087,0.07404468
-2.49933738,-0.00115981,0.03070443,0.06208033
-2.49833738,-0.00555488,0.02081553,0.05335124
-2.49733738,-0.01434501,0.01092663,0.04242461
-2.49633738,-0.01983885,0.00103772,0.03155903
-2.49533738,-0.02533268,-0.00879014,0.02173117
-2.49433738,-0.03082652,-0.01977780,0.01300208
-2.49333738,-0.03412282,-0.02966671,0.00097668
-2.49233738,-0.04297400,-0.03735808,-0.00885118
-2.49133738,-0.05066536,-0.04938347,-0.01751923
-2.49033738,-0.05506043,-0.05817360,-0.02624832
-2.48933738,-0.06165303,-0.06806251,-0.03827371
-2.48833738,-0.06824563,-0.08014894,-0.04920034
-2.48733738,-0.07264070,-0.08777927,-0.05792943
-2.48633738,-0.08039311,-0.09986570,-0.06879502
-2.48533738,-0.08478818,-0.10975460,-0.07862288
-2.48433738,-0.09247955,-0.11964350,-0.09064827
-2.48333738,-0.09687462,-0.12843360,-0.09827860
-2.48233738,-0.10456600,-0.13826150,-0.10804540
-2.48133738,-0.11115860,-0.14815040,-0.11897200
-2.48033738,-0.11671350,-0.16023680,-0.12770110
-2.47933738,-0.12440480,-0.17012580,-0.13752900
-2.47833738,-0.12879990,-0.17995360,-0.14839460
-2.47733738,-0.13539250,-0.19094130,-0.16042000
-2.47633738,-0.14308390,-0.20083020,-0.16914910
-2.47533738,-0.14747890,-0.20962030,-0.17897690
-2.47433738,-0.15407150,-0.21944820,-0.18874370
-2.47333738,-0.16072520,-0.23043580,-0.20076910
-2.47233738,-0.16621900,-0.23922600,-0.20949820
-2.47133738,-0.17281160,-0.24911490,-0.21932610
-2.47033738,-0.17720670,-0.25900380,-0.22915390
-2.46933738,-0.18379930,-0.26773290,-0.23892080
-2.46833738,-0.18929310,-0.27762180,-0.24874860
-2.46733738,-0.19704550,-0.28860940,-0.25967530
-2.46633738,-0.20144060,-0.29739960,-0.26840430
-2.46533738,-0.20803320,-0.30942500,-0.27823220
-2.46433738,-0.21462580,-0.31821510,-0.28799900
-2.46333738,-0.21902090,-0.32810400,-0.29782690
-2.46233738,-0.22451470,-0.33799290,-0.30765470
-2.46133738,-0.23336590,-0.34672200,-0.31748260
-2.46033738,-0.23776100,-0.35661090,-0.32724940
-2.45933738,-0.24325480,-0.36649980,-0.33817600
-2.45833738,-0.24874860,-0.37748750,-0.34580640
-2.45733738,-0.25753880,-0.38408010,-0.35783180
-2.45633738,-0.26083510,-0.39500670,-0.36656080
-2.45533738,-0.26742770,-0.40489560,-0.37632770
-2.45433738,-0.27298250,-0.41368570,-0.38835300
-2.45333738,-0.27847640,-0.42357470,-0.39598340
-2.45233738,-0.28506900,-0.43450130,-0.40581130
-2.45133738,-0.29056280,-0.44219260,-0.41673790
-2.45033738,-0.29715540,-0.45318030,-0.42540590
-2.44933738,-0.30264930,-0.46197040,-0.43523380
-2.44833738,-0.30924180,-0.47076060,-0.44616040
-2.44733738,-0.31479670,-0.48058840,-0.45488950
-2.44633738,-0.31919180,-0.49157610,-0.46361860
-2.44533738,-0.32578440,-0.50036630,-0.47234770
-2.44433738,-0.33347580,-0.50915640,-0.48321330
-2.44333738,-0.33787080,-0.51794650,-0.49084360
-2.44233738,-0.34556220,-0.52777440,-0.50177030
-2.44133738,-0.34885850,-0.53546570,-0.50940050
-2.44033738,-0.35551210,-0.54535470,-0.51922840
-2.43933738,-0.35990720,-0.55304600,-0.52685870
-2.43833738,-0.36649980,-0.56177510,-0.53558780
-2.43733738,-0.37199370,-0.57056520,-0.54541570
-2.43633738,-0.37858620,-0.58045420,-0.55524360
-2.43533738,-0.38298130,-0.58924430,-0.56391160
-2.43433738,-0.38847510,-0.59693560,-0.57373950
-2.43333738,-0.39403000,-0.60786230,-0.58246860
-2.43233738,-0.40062260,-0.61775120,-0.59009890
-2.43133738,-0.40611650,-0.62654130,-0.59992670
-2.43033738,-0.41270910,-0.63313390,-0.60755710
-2.42933738,-0.41710410,-0.64302280,-0.61848370
-2.42833738,-0.42149920,-0.65065310,-0.62391650
-2.42733738,-0.42815290,-0.65944330,-0.63374440
-2.42633738,-0.43584420,-0.66493710,-0.64247350
-2.42533738,-0.43804170,-0.67372730,-0.65120260
-2.42433738,-0.44573310,-0.68251740,-0.65663530
-2.42333738,-0.45012820,-0.69020870,-0.66646320
-2.42233738,-0.45891830,-0.69783910,-0.67189600
-2.42133738,-0.46111580,-0.70223410,-0.67842750
-2.42033738,-0.46551090,-0.71212300,-0.68715660
-2.41933738,-0.47326330,-0.71981440,-0.69478700
-2.41833738,-0.47875720,-0.72640710,-0.70351610
-2.41733738,-0.48315220,-0.73299960,-0.71010860
-2.41633738,-0.48864610,-0.74063000,-0.71664020
-2.41533738,-0.49413990,-0.74722250,-0.72427050
-2.41433738,-0.49963370,-0.75491390,-0.73080210
-2.41333738,-0.50402880,-0.76040770,-0.73733370
-2.41233738,-0.50958370,-0.76590160,-0.74386520
-2.41133738,-0.51617630,-0.77359290,-0.74935900
-2.41033738,-0.51947260,-0.78122330,-0.75698940
-2.40933738,-0.52606520,-0.78451960,-0.76352100
-2.40833738,-0.53046020,-0.79111220,-0.76785490
-2.40733738,-0.53595410,-0.79660600,-0.77334880
-2.40633738,-0.54254670,-0.80319860,-0.77768280
-2.40533738,-0.54480530,-0.80759370,-0.78531310
-2.40433738,-0.55139790,-0.81089000,-0.78970820
-2.40333738,-0.56018800,-0.81748260,-0.79623970
-2.40233738,-0.56238560,-0.82291540,-0.80057380
-2.40133738,-0.56458310,-0.82840920,-0.80820410
-2.40033738,-0.57227440,-0.83280430,-0.81150040
-2.39933738,-0.57666950,-0.83829810,-0.81803200
-2.39833738,-0.58216330,-0.84379200,-0.82242700
-2.39733738,-0.58881700,-0.85038450,-0.83005740
-2.39633738,-0.59211330,-0.85697720,-0.83549020
-2.39533738,-0.59870590,-0.86027350,-0.83988520
-2.39433738,-0.60090340,-0.86570630,-0.84641680
-2.39333738,-0.60859480,-0.87120010,-0.85075080
-2.39233738,-0.61298980,-0.87669390,-0.85728240
-2.39133738,-0.61628620,-0.88108900,-0.86167740
-2.39033738,-0.62068120,-0.88548400,-0.86601140
-2.38933738,-0.62513730,-0.88987910,-0.87040650
-2.38833738,-0.63173000,-0.89427420,-0.87474050
-2.38733738,-0.63612500,-0.89976800,-0.88133320
-2.38633738,-0.64161880,-0.90416310,-0.88566720
-2.38533738,-0.64601390,-0.90959590,-0.89110000
-2.38433738,-0.64931020,-0.91399100,-0.89439630
-2.38333738,-0.65590280,-0.91728720,-0.89873030
-2.38233738,-0.66029790,-0.92058350,-0.90202660
-2.38133738,-0.66475400,-0.92278110,-0.90312530
-2.38033738,-0.66805030,-0.92278110,-0.90636060
-2.37933738,-0.67464290,-0.92497860,-0.90745940
-2.37833738,-0.67793920,-0.92717620,-0.90855810
-2.37733738,-0.68123550,-0.92827490,-0.91185440
-2.37633738,-0.68672930,-0.92937370,-0.91295330
-2.37533738,-0.69112440,-0.93047240,-0.91185440
-2.37433738,-0.69442070,-0.92827490,-0.91185440
-2.37333738,-0.70107440,-0.92607740,-0.90855810
-2.37233738,-0.70327190,-0.92387990,-0.90636060
-2.37133738,-0.70876570,-0.92058350,-0.90532290
-2.37033738,-0.71316080,-0.91948480,-0.90202660
-2.36933738,-0.71755580,-0.91838600,-0.90202660
-2.36833738,-0.72304970,-0.91728720,-0.90202660
-2.36733738,-0.72524720,-0.91838600,-0.90092780
-2.36633738,-0.72854350,-0.91948480,-0.90422420
-2.36533738,-0.73513610,-0.92278110,-0.90532290
-2.36433738,-0.73849340,-0.92497860,-0.90636060
-2.36333738,-0.74288850,-0.92497860,-0.91185440
-2.36233738,-0.74618480,-0.92937370,-0.91295330
-2.36133738,-0.75057990,-0.93047240,-0.91618850
-2.36033738,-0.75387620,-0.93376870,-0.91838600
-2.35933738,-0.75937000,-0.93486750,-0.92168230
-2.35833738,-0.76156760,-0.93816380,-0.92381880
-2.35733738,-0.76596260,-0.94036140,-0.92601630
-2.35633738,-0.76925890,-0.94255890,-0.93035040
-2.35533738,-0.77365400,-0.94255890,-0.93144910
-2.35433738,-0.77811010,-0.94695400,-0.93364670
-2.35333738,-0.78250520,-0.94915150,-0.93584420
-2.35233738,-0.78580150,-0.95025030,-0.93804170
-2.35133738,-0.78909780,-0.95568310,-0.94347450
-2.35033738,-0.79349290,-0.95788060,-0.94457330
-2.34933738,-0.79569040,-0.96337440,-0.94890730
-2.34833738,-0.80118420,-0.96557190,-0.95220360
-2.34733738,-0.80228300,-0.96886830,-0.95543890
-2.34633738,-0.80667810,-0.97326330,-0.96093270
-2.34533738,-0.80997440,-0.97765840,-0.96306920
-2.34433738,-0.81327060,-0.97875710,-0.96856300
-2.34333738,-0.81772670,-0.98205350,-0.97076060
-2.34233738,-0.81992430,-0.98534980,-0.97399580
-2.34133738,-0.82322060,-0.98974480,-0.97619340
-2.34033738,-0.82981320,-0.99194230,-0.98052740
-2.33933738,-0.83091200,-0.99407890,-0.98382370
-2.33833738,-0.83420830,-0.99737510,-0.98602120
-2.33733738,-0.83860330,-0.99957270,-0.99035530
-2.33633738,-0.83970210,-1.00067200,-0.99035530
-2.33533738,-0.84409710,-1.00286900,-0.99255280
-2.33433738,-0.84739350,-1.00616500,-0.99475030
-2.33333738,-0.84959100,-1.00946200,-0.99908440
-2.33233738,-0.85398610,-1.01056000,-1.00018300
-2.33133738,-0.85514590,-1.01385700,-1.00451700
-2.33033738,-0.85954090,-1.01715300,-1.00671500
-2.32933738,-0.86173850,-1.01825200,-1.01001100
-2.32833738,-0.86503480,-1.02264700,-1.01434500
-2.32733738,-0.86723230,-1.02814100,-1.01764100
-2.32633738,-0.87052860,-1.02923900,-1.02197500
-2.32533738,-0.87382490,-1.03143700,-1.02197500
-2.32433738,-0.87602250,-1.03473300,-1.02637000
-2.32333738,-0.87931880,-1.03583200,-1.02850700
-2.32233738,-0.88371380,-1.03796900,-1.02960600
-2.32133738,-0.88371380,-1.04016600,-1.03180300
-2.32033738,-0.88701010,-1.04236400,-1.03510000
-2.31933738,-0.88920770,-1.04456100,-1.03723600
-2.31833738,-0.89140520,-1.04456100,-1.04053200
-2.31733738,-0.89360270,-1.04895600,-1.04163100
-2.31633738,-0.89586130,-1.05225200,-1.04382900
-2.31533738,-0.90025640,-1.05445000,-1.04706400
-2.31433738,-0.90245390,-1.05884500,-1.05255800
-2.31333738,-0.90355270,-1.05884500,-1.05359500
-2.31233738,-0.90794770,-1.06214100,-1.05689200
-2.31133738,-0.91014530,-1.06543800,-1.06018800
-2.31033738,-0.91344150,-1.06983300,-1.06342300
-2.30933738,-0.91454040,-1.07203000,-1.06562100
-2.30833738,-0.91563910,-1.07642500,-1.06995500
-2.30733738,-0.91893540,-1.07752400,-1.07435000
-2.30633738,-0.92113290,-1.08185800,-1.07654700
-2.30533738,-0.92442920,-1.08295700,-1.07978300
-2.30433738,-0.92442920,-1.08625300,-1.08417800
-2.30333738,-0.92662680,-1.08735200,-1.08307900
-2.30233738,-0.93102180,-1.09064800,-1.08851200
-2.30133738,-0.92992310,-1.09394500,-1.09070900
-2.30033738,-0.93102180,-1.09504300,-1.09180800
-2.29933738,-0.93437920,-1.09724100,-1.09504300
-2.29833738,-0.93657670,-1.10053700,-1.09724100
-2.29733738,-0.93877420,-1.10383300,-1.10157500
-2.29633738,-0.93987300,-1.10493200,-1.10377200
-2.29533738,-0.94316930,-1.10932700,-1.10487100
-2.29433738,-0.94426810,-1.11042600,-1.10816800
-2.29333738,-0.94646560,-1.11262400,-1.11140300
-2.29233738,-0.94866320,-1.11482100,-1.11250200
-2.29133738,-0.94756440,-1.11701900,-1.11469900
-2.29033738,-0.94866320,-1.11921600,-1.11579800
-2.28933738,-0.95195940,-1.12031500,-1.12013200
-2.28833738,-0.95305820,-1.12251200,-1.12123100
-2.28733738,-0.95415700,-1.12355000,-1.12342800
-2.28633738,-0.95525570,-1.12684700,-1.12452700
-2.28533738,-0.95635450,-1.12684700,-1.12666300
-2.28433738,-0.95965080,-1.12904400,-1.12776200
-2.28333738,-0.95965080,-1.13124200,-1.13105800
-2.28233738,-0.96184840,-1.13234000,-1.13215700
-2.28133738,-0.96294710,-1.13453800,-1.13325600
-2.28033738,-0.96514460,-1.13343900,-1.13539200
-2.27933738,-0.96404590,-1.13563700,-1.13539200
-2.27833738,-0.96624340,-1.13673500,-1.13759000
-2.27733738,-0.96624340,-1.13673500,-1.13868900
-2.27633738,-0.96734220,-1.13673500,-1.13978800
-2.27533738,-0.96844090,-1.13893300,-1.14198500
-2.27433738,-0.96953970,-1.14113000,-1.14302300
-2.27333738,-0.97063850,-1.14113000,-1.14302300
-2.27233738,-0.97179830,-1.14222900,-1.14631900
-2.27133738,-0.97179830,-1.14442700,-1.14631900
-2.27033738,-0.97619340,-1.14552600,-1.14961500
-2.26933738,-0.97509460,-1.14552600,-1.14851700
-2.26833738,-0.97509460,-1.14662400,-1.15175200
-2.26733738,-0.97619340,-1.14772300,-1.15065300
-2.26633738,-0.97729210,-1.14662400,-1.15175200
-2.26533738,-0.97729210,-1.14772300,-1.15175200
-2.26433738,-0.97839090,-1.14552600,-1.15285100
-2.26333738,-0.97729210,-1.14662400,-1.15285100
-2.26233738,-0.97839090,-1.14882200,-1.15394900
-2.26133738,-0.97948970,-1.14772300,-1.15285100
-2.26033738,-0.97839090,-1.14772300,-1.15504800
-2.25933738,-0.98058840,-1.14992100,-1.15504800
-2.25833738,-0.97948970,-1.14882200,-1.15504800
-2.25733738,-0.97839090,-1.14772300,-1.15504800
-2.25633738,-0.97948970,-1.14772300,-1.15285100
-2.25533738,-0.98058840,-1.14332800,-1.15285100
-2.25433738,-0.98168720,-1.14442700,-1.15065300
-2.25333738,-0.98278590,-1.14442700,-1.15065300
-2.25233738,-0.98058840,-1.14113000,-1.14851700
-2.25133738,-0.98388480,-1.14113000,-1.14522000
-2.25033738,-0.98278590,-1.13783400,-1.14631900
-2.24933738,-0.98168720,-1.13673500,-1.14302300
-2.24833738,-0.98278590,-1.13673500,-1.14302300
-2.24733738,-0.98168720,-1.13563700,-1.14522000
-2.24633738,-0.98498350,-1.13673500,-1.14412200
-2.24533738,-0.98168720,-1.13563700,-1.14412200
-2.24433738,-0.98278590,-1.13343900,-1.14302300
-2.24333738,-0.98168720,-1.13563700,-1.14412200
-2.24233738,-0.98168720,-1.13343900,-1.14302300
-2.24133738,-0.98168720,-1.13453800,-1.14198500
-2.24033738,-0.98058840,-1.13234000,-1.14302300
-2.23933738,-0.98058840,-1.13014300,-1.14088600
-2.23833738,-0.97948970,-1.13124200,-1.13978800
-2.23733738,-0.97948970,-1.12794500,-1.13868900
-2.23633738,-0.97839090,-1.12684700,-1.13759000
-2.23533738,-0.97948970,-1.12574800,-1.13649100
-2.23433738,-0.97948970,-1.12355000,-1.13539200
-2.23333738,-0.97619340,-1.12464900,-1.13539200
-2.23233738,-0.97619340,-1.12574800,-1.13539200
-2.23133738,-0.97509460,-1.12251200,-1.13429400
-2.23033738,-0.97509460,-1.12251200,-1.13429400
-2.22933738,-0.97619340,-1.12141400,-1.13325600
-2.22833738,-0.97399580,-1.12031500,-1.13325600
-2.22733738,-0.97179830,-1.12031500,-1.13325600
-2.22633738,-0.97179830,-1.12031500,-1.13215700
-2.22533738,-0.97179830,-1.11921600,-1.12996000
-2.22433738,-0.96844090,-1.11701900,-1.12886100
-2.22333738,-0.96844090,-1.11482100,-1.12886100
-2.22233738,-0.96844090,-1.11482100,-1.12666300
-2.22133738,-0.96844090,-1.11372200,-1.12232900
-2.22033738,-0.96514460,-1.11152500,-1.12232900
-2.21933738,-0.96514460,-1.10603100,-1.12013200
-2.21833738,-0.96404590,-1.10383300,-1.11903300
-2.21733738,-0.96184840,-1.10273500,-1.11689700
-2.21633738,-0.96184840,-1.09834000,-1.11360000
-2.21533738,-0.95965080,-1.09614200,-1.11030400
-2.21433738,-0.95855210,-1.09394500,-1.10816800
-2.21333738,-0.95635450,-1.08955000,-1.10377200
-2.21233738,-0.95635450,-1.08625300,-1.10053700
-2.21133738,-0.95415700,-1.08295700,-1.09834000
-2.21033738,-0.95195940,-1.08075900,-1.09504300
-2.20933738,-0.95086070,-1.07642500,-1.09070900
-2.20833738,-0.95086070,-1.07532700,-1.09070900
-2.20733738,-0.94866320,-1.07093100,-1.08631400
-2.20633738,-0.94646560,-1.06873400,-1.08417800
-2.20533738,-0.94426810,-1.06543800,-1.08088100
-2.20433738,-0.94316930,-1.06214100,-1.07654700
-2.20333738,-0.94097180,-1.05774600,-1.07325100
-2.20233738,-0.93877420,-1.05335100,-1.06995500
-2.20133738,-0.93767550,-1.05005500,-1.06562100
-2.20033738,-0.93437920,-1.04566000,-1.06232500
-2.19933738,-0.93437920,-1.04126500,-1.05908900
-2.19833738,-0.92992310,-1.03906700,-1.05359500
-2.19733738,-0.92992310,-1.03473300,-1.05145900
-2.19633738,-0.92772560,-1.03033800,-1.04706400
-2.19533738,-0.92552800,-1.02594300,-1.04486600
-2.19433738,-0.92442920,-1.02374600,-1.04053200
-2.19333738,-0.92333050,-1.01935100,-1.03723600
-2.19233738,-0.92003420,-1.01605400,-1.03400100
-2.19133738,-0.91783670,-1.01165900,-1.02960600
-2.19033738,-0.91454040,-1.00946200,-1.02527200
-2.18933738,-0.91344150,-1.00396800,-1.02197500
-2.18833738,-0.91234280,-1.00177000,-1.02087700
-2.18733738,-0.90904650,-0.99737510,-1.01544400
-2.18633738,-0.90575020,-0.99304120,-1.01214700
-2.18533738,-0.90355270,-0.98974480,-1.00781300
-2.18433738,-0.90135510,-0.98425100,-1.00238100
-2.18333738,-0.89915760,-0.97985590,-1.00018300
-2.18233738,-0.89586130,-0.97655960,-0.99688680
-2.18133738,-0.89476250,-0.97326330,-0.99365160
-2.18033738,-0.89030640,-0.96886830,-0.98925650
-2.17933738,-0.88810890,-0.96447320,-0.98712000
-2.17833738,-0.88591130,-0.96117690,-0.98052740
-2.17733738,-0.88261500,-0.95458430,-0.97839090
-2.17633738,-0.88151630,-0.95128800,-0.97289710
-2.17533738,-0.87712120,-0.94805270,-0.96856300
-2.17433738,-0.87602250,-0.94365760,-0.96416800
-2.17333738,-0.87272610,-0.93926260,-0.96093270
-2.17233738,-0.86942980,-0.93376870,-0.95653770
-2.17133738,-0.86723230,-0.92937370,-0.95110490
-2.17033738,-0.86173850,-0.92497860,-0.94780860
-2.16933738,-0.86063970,-0.92058350,-0.94127700
-2.16833738,-0.85844220,-0.91508970,-0.93694300
-2.16733738,-0.85398610,-0.90849710,-0.93035040
-2.16633738,-0.85178850,-0.90416310,-0.92601630
-2.16533738,-0.84849230,-0.89866920,-0.92168230
-2.16433738,-0.84519590,-0.89647170,-0.91618850
-2.16333738,-0.84299840,-0.88987910,-0.91185440
-2.16233738,-0.83970210,-0.88438530,-0.90745940
-2.16133738,-0.83530700,-0.87999020,-0.90422420
-2.16033738,-0.83091200,-0.87669390,-0.89982910
-2.15933738,-0.83091200,-0.87229880,-0.89439630
-2.15833738,-0.82651690,-0.86900260,-0.89000120
-2.15733738,-0.82322060,-0.86356970,-0.88566720
-2.15633738,-0.81882550,-0.85697720,-0.87913560
-2.15533738,-0.81772670,-0.85148330,-0.87474050
-2.15433738,-0.81217190,-0.84708830,-0.87040650
-2.15333738,-0.80887560,-0.83939690,-0.86497370
-2.15233738,-0.80777680,-0.83390310,-0.85838120
-2.15133738,-0.80228300,-0.83060680,-0.85404710
-2.15033738,-0.79898670,-0.82511290,-0.84965210
-2.14933738,-0.79459160,-0.81968010,-0.84421930
-2.14833738,-0.79129530,-0.81418630,-0.83988520
-2.14733738,-0.78799900,-0.80979120,-0.83439140
-2.14633738,-0.78470270,-0.80649500,-0.83005740
-2.14533738,-0.78140640,-0.80100110,-0.82456350
-2.14433738,-0.77585150,-0.79440850,-0.82022950
-2.14333738,-0.77255520,-0.79001340,-0.81479670
-2.14233738,-0.76925890,-0.78451960,-0.81040170
-2.14133738,-0.76486380,-0.78012450,-0.80606760
-2.14033738,-0.76156760,-0.77359290,-0.79953600
-2.13933738,-0.75607370,-0.76809910,-0.79514100
-2.13833738,-0.75277750,-0.76260530,-0.78970820
-2.13733738,-0.74838230,-0.75601270,-0.78421440
-2.13633738,-0.74508610,-0.75271640,-0.77768280
-2.13533738,-0.74069100,-0.74722250,-0.77334880
-2.13433738,-0.73733370,-0.74063000,-0.76785490
-2.13333738,-0.73183980,-0.73409840,-0.76461970
-2.13233738,-0.72964230,-0.73080210,-0.75698940
-2.13133738,-0.72634600,-0.72530820,-0.75259430
-2.13033738,-0.72085210,-0.72091320,-0.74716150
-2.12933738,-0.71645710,-0.71322180,-0.73953120
-2.12833738,-0.71425960,-0.70662920,-0.73513610
-2.12733738,-0.70656820,-0.70113540,-0.72970330
-2.12633738,-0.70327190,-0.69564150,-0.72427050
-2.12533738,-0.69881580,-0.69020870,-0.71773900
-2.12433738,-0.69551940,-0.68581370,-0.71224510
-2.12333738,-0.69002560,-0.67812230,-0.70681230
-2.12233738,-0.68672930,-0.67262850,-0.70028080
-2.12133738,-0.68013670,-0.66603590,-0.69478700
-2.12033738,-0.67793920,-0.66054210,-0.68935420
-2.11933738,-0.67354410,-0.65504820,-0.68282260
-2.11833738,-0.66914900,-0.64845560,-0.67842750
-2.11733738,-0.66365520,-0.64302280,-0.67189600
-2.11633738,-0.65919910,-0.63752900,-0.66646320
-2.11533738,-0.65590280,-0.63093640,-0.65773410
-2.11433738,-0.64931020,-0.62654130,-0.65333900
-2.11333738,-0.64491520,-0.61884990,-0.64790620
-2.11233738,-0.63942130,-0.61335610,-0.64137460
-2.11133738,-0.63502620,-0.60676350,-0.63594190
-2.11033738,-0.63063110,-0.60023190,-0.62934930
-2.10933738,-0.62733490,-0.59254060,-0.62391650
-2.10833738,-0.62184100,-0.58704670,-0.61738490
-2.10733738,-0.61628620,-0.57935540,-0.61195210
-2.10633738,-0.61298980,-0.57276280,-0.60426070
-2.10533738,-0.60749600,-0.56617020,-0.59772920
-2.10433738,-0.60310100,-0.56073740,-0.59229640
-2.10333738,-0.59650840,-0.55414480,-0.58466610
-2.10233738,-0.59211330,-0.54755220,-0.58027100
-2.10133738,-0.58661940,-0.54315710,-0.57373950
-2.10033738,-0.58216330,-0.53656450,-0.56720790
-2.09933738,-0.57666950,-0.53107070,-0.56067630
-2.09833738,-0.57227440,-0.52337930,-0.55524360
-2.09733738,-0.56678060,-0.51794650,-0.54974970
-2.09633738,-0.56238560,-0.51245270,-0.54431690
-2.09533738,-0.55689170,-0.50476130,-0.53668660
-2.09433738,-0.55249660,-0.49926750,-0.53015510
-2.09333738,-0.54810150,-0.49157610,-0.52466120
-2.09233738,-0.54254670,-0.48718100,-0.51703090
-2.09133738,-0.53705290,-0.48058840,-0.51049930
-2.09033738,-0.53046020,-0.47405690,-0.50396780
-2.08933738,-0.52496640,-0.46746430,-0.49957270
-2.08833738,-0.51947260,-0.46197040,-0.49413990
-2.08733738,-0.51397870,-0.45647660,-0.48760830
