Frequency,Channel A,Channel B,Channel C
(ms),(V),(V),(V)

-2.50166968,0.01428397,0.05481626,0.08607008
-2.50066968,0.00879014,0.04602613,0.07843975
-2.49966968,0.00439507,0.03619827,0.06861189
-2.49866968,-0.00115981,0.02521060,0.05768526
-2.49766968,-0.00775241,0.01642046,0.04785740
-2.49666968,-0.01434501,0.00543279,0.03479429
-2.49566968,-0.02203638,-0.00329630,0.02716396
-2.49466968,-0.02753022,-0.01428397,0.01623733
-2.49366968,-0.03412282,-0.02417287,0.00647052
-2.49266968,-0.04077646,-0.03406177,-0.00335734
-2.49166968,-0.04627030,-0.04388963,-0.01208644
-2.49066968,-0.05286290,-0.05487730,-0.02301306
-2.48966968,-0.05725797,-0.06366744,-0.03174216
-2.48866968,-0.06604810,-0.07575388,-0.04370651
-2.48766968,-0.07044317,-0.08454401,-0.05243560
-2.48666968,-0.07819558,-0.09547064,-0.06336223
-2.48566968,-0.08259065,-0.10426080,-0.07319009
-2.48466968,-0.08808448,-0.11305090,-0.08295690
-2.48366968,-0.09467708,-0.12513730,-0.09278476
-2.48266968,-0.10126970,-0.13386640,-0.10481020
-2.48166968,-0.10896110,-0.14265660,-0.11353920
-2.48066968,-0.11335610,-0.15364420,-0.12116960
-2.47966968,-0.12000980,-0.16353320,-0.13313390
-2.47866968,-0.12660240,-0.17445980,-0.14296180
-2.47766968,-0.13209620,-0.18434870,-0.15169090
-2.47666968,-0.13759000,-0.19313880,-0.16261750
-2.47566968,-0.14198510,-0.20302770,-0.17238430
-2.47466968,-0.15077520,-0.21181780,-0.18111340
-2.47366968,-0.15633010,-0.22054690,-0.19094130
-2.47266968,-0.16292270,-0.23153460,-0.20186790
-2.47166968,-0.16951530,-0.23812720,-0.21059700
-2.47066968,-0.17610790,-0.25021370,-0.21822730
-2.46966968,-0.18160180,-0.25900380,-0.22915390
-2.46866968,-0.18599680,-0.26883160,-0.23892080
-2.46766968,-0.19149070,-0.27872060,-0.25094620
-2.46666968,-0.20144060,-0.28970820,-0.25967530
-2.46566968,-0.20583570,-0.29959710,-0.26840430
-2.46466968,-0.21242830,-0.30832620,-0.27926990
-2.46366968,-0.21792210,-0.31821510,-0.28909780
-2.46266968,-0.22231720,-0.32700520,-0.29892560
-2.46166968,-0.22890980,-0.33689420,-0.30655600
-2.46066968,-0.23446460,-0.34568430,-0.31748260
-2.45966968,-0.24215600,-0.35441340,-0.32724940
-2.45866968,-0.24435360,-0.36430230,-0.33597850
-2.45766968,-0.25314370,-0.37419120,-0.34470760
-2.45666968,-0.25753880,-0.38298130,-0.35453550
-2.45566968,-0.26303260,-0.39061160,-0.36326460
-2.45466968,-0.27072400,-0.39940180,-0.37309240
-2.45366968,-0.27847640,-0.40709310,-0.37962400
-2.45266968,-0.28397020,-0.41698210,-0.38835300
-2.45166968,-0.28836530,-0.42687090,-0.39598340
-2.45066968,-0.29276030,-0.43450130,-0.40581130
-2.44966968,-0.30155050,-0.44219260,-0.41563910
-2.44866968,-0.30704430,-0.44878520,-0.42107190
-2.44766968,-0.31034060,-0.45757540,-0.43089980
-2.44666968,-0.31919180,-0.46636550,-0.43743130
-2.44566968,-0.32468560,-0.47405690,-0.44506170
-2.44466968,-0.33017950,-0.48388480,-0.45379070
-2.44366968,-0.33457450,-0.49047740,-0.46251980
-2.44266968,-0.34226590,-0.49816870,-0.47234770
-2.44166968,-0.34666100,-0.50586010,-0.47997800
-2.44066968,-0.35221580,-0.51355150,-0.48760830
-2.43966968,-0.35990720,-0.52118180,-0.49633740
-2.43866968,-0.36540100,-0.52887310,-0.50286900
-2.43766968,-0.37089490,-0.53326820,-0.51049930
-2.43666968,-0.37528990,-0.54315710,-0.51703090
-2.43566968,-0.37968500,-0.55194720,-0.52576000
-2.43466968,-0.38627760,-0.55853990,-0.53448900
-2.43366968,-0.39183250,-0.56726900,-0.54211940
-2.43266968,-0.39842510,-0.57496030,-0.54974970
-2.43166968,-0.40172140,-0.58265170,-0.55628130
-2.43066968,-0.41051150,-0.59144180,-0.56391160
-2.42966968,-0.41380780,-0.59803440,-0.57373950
-2.42866968,-0.42040040,-0.60566470,-0.57923330
-2.42766968,-0.42925160,-0.61335610,-0.58686360
-2.42666968,-0.43144910,-0.61884990,-0.59559270
-2.42566968,-0.43804170,-0.62764010,-0.60212430
-2.42466968,-0.44243680,-0.63203510,-0.60865580
-2.42366968,-0.45012820,-0.63972650,-0.61518740
-2.42266968,-0.45342450,-0.64522030,-0.62171890
-2.42166968,-0.46001710,-0.65065310,-0.62721280
-2.42066968,-0.46441220,-0.65724580,-0.63374440
-2.41966968,-0.46996700,-0.66273960,-0.64027590
-2.41866968,-0.47546090,-0.66823340,-0.64357220
-2.41766968,-0.48095470,-0.67372730,-0.65010370
-2.41666968,-0.48644850,-0.67702350,-0.65333900
-2.41566968,-0.49304110,-0.68361620,-0.65883280
-2.41466968,-0.49853500,-0.68581370,-0.66536440
-2.41366968,-0.50293000,-0.69130750,-0.66756190
-2.41266968,-0.50628740,-0.69674030,-0.67409350
-2.41166968,-0.51397870,-0.70113540,-0.67842750
-2.41066968,-0.51837380,-0.70443170,-0.68172380
-2.40966968,-0.52496640,-0.71102430,-0.68715660
-2.40866968,-0.53046020,-0.71541940,-0.69045290
-2.40766968,-0.53375660,-0.71871570,-0.69588570
-2.40666968,-0.54034910,-0.72311070,-0.70137950
-2.40566968,-0.54700280,-0.72750580,-0.70461480
-2.40466968,-0.55139790,-0.73190090,-0.70900990
-2.40366968,-0.55579290,-0.73513610,-0.71334390
-2.40266968,-0.56348430,-0.73953120,-0.71773900
-2.40166968,-0.56678060,-0.74282750,-0.72207300
-2.40066968,-0.57227440,-0.74612380,-0.72536930
-2.39966968,-0.57666950,-0.74942010,-0.72860460
-2.39866968,-0.58332310,-0.75381520,-0.73190090
-2.39766968,-0.58771820,-0.75711140,-0.73623490
-2.39666968,-0.59211330,-0.76260530,-0.74063000
-2.39566968,-0.59540960,-0.76480280,-0.74496400
-2.39466968,-0.60090340,-0.76809910,-0.74935900
-2.39366968,-0.60639730,-0.77359290,-0.75369300
-2.39266968,-0.61079230,-0.77792700,-0.75589060
-2.39166968,-0.61628620,-0.78122330,-0.76132340
-2.39066968,-0.62184100,-0.78671710,-0.76681720
-2.38966968,-0.62623610,-0.79001340,-0.77005250
-2.38866968,-0.63063110,-0.79440850,-0.77334880
-2.38766968,-0.63612500,-0.79660600,-0.77878160
-2.38666968,-0.63832250,-0.79990230,-0.78207790
-2.38566968,-0.64491520,-0.80649500,-0.78751070
-2.38466968,-0.64821140,-0.81198880,-0.79184470
-2.38366968,-0.65480410,-0.81308750,-0.79514100
-2.38266968,-0.65919910,-0.81748260,-0.79953600
-2.38166968,-0.66365520,-0.82077890,-0.80496880
-2.38066968,-0.66695150,-0.82401410,-0.80716640
-2.37966968,-0.67134660,-0.82621170,-0.80930290
-2.37866968,-0.67684040,-0.82840920,-0.81259920
-2.37766968,-0.68233420,-0.83060680,-0.81479670
-2.37666968,-0.68563060,-0.83390310,-0.81803200
-2.37566968,-0.69002560,-0.83719930,-0.81913070
-2.37466968,-0.69442070,-0.84049560,-0.82242700
-2.37366968,-0.69771700,-0.84379200,-0.82676110
-2.37266968,-0.70437060,-0.84818700,-0.83005740
-2.37166968,-0.70656820,-0.85148330,-0.83549020
-2.37066968,-0.71206200,-0.85697720,-0.83878650
-2.36966968,-0.71645710,-0.86027350,-0.84312050
-2.36866968,-0.71865460,-0.86460750,-0.84751560
-2.36766968,-0.72414850,-0.86900260,-0.85294840
-2.36666968,-0.72854350,-0.87120010,-0.85624460
-2.36566968,-0.73183980,-0.87449640,-0.86057870
-2.36466968,-0.73733370,-0.87999020,-0.86387500
-2.36366968,-0.73959220,-0.88328650,-0.86820900
-2.36266968,-0.74508610,-0.88438530,-0.86930780
-2.36166968,-0.75057990,-0.88768160,-0.87260410
-2.36066968,-0.75497500,-0.88878040,-0.87474050
-2.35966968,-0.75717250,-0.89097790,-0.87803690
-2.35866968,-0.76046880,-0.89317540,-0.87693810
-2.35766968,-0.76596260,-0.89647170,-0.88346960
-2.35666968,-0.77035770,-0.90086680,-0.88566720
-2.35566968,-0.77255520,-0.90416310,-0.89000120
-2.35466968,-0.77585150,-0.90745940,-0.89219870
-2.35366968,-0.77920890,-0.91179340,-0.89769260
-2.35266968,-0.78470270,-0.91618850,-0.90202660
-2.35166968,-0.78909780,-0.92058350,-0.90636060
-2.35066968,-0.79129530,-0.92497860,-0.91185440
-2.34966968,-0.79678920,-0.92937370,-0.91838600
-2.34866968,-0.80008540,-0.93376870,-0.92272010
-2.34766968,-0.80338170,-0.94036140,-0.92711510
-2.34666968,-0.80777680,-0.94475640,-0.93364670
-2.34566968,-0.80887560,-0.95128800,-0.93907950
-2.34466968,-0.81217190,-0.95348550,-0.94237580
-2.34366968,-0.81662800,-0.95678180,-0.94670980
-2.34266968,-0.81992430,-0.96337440,-0.95220360
-2.34166968,-0.82322060,-0.96776950,-0.95543890
-2.34066968,-0.82871440,-0.97216460,-0.95983400
-2.33966968,-0.83201070,-0.97655960,-0.96526680
-2.33866968,-0.83310950,-0.98095470,-0.96856300
-2.33766968,-0.83640580,-0.98534980,-0.97399580
-2.33666968,-0.84080090,-0.98974480,-0.97942860
-2.33566968,-0.84409710,-0.99407890,-0.98382370
-2.33466968,-0.84519590,-0.99847390,-0.98925650
-2.33366968,-0.85068980,-1.00396800,-0.99365160
-2.33266968,-0.85288730,-1.00946200,-0.99908440
-2.33166968,-0.85624460,-1.01495500,-1.00347900
-2.33066968,-0.85734340,-1.01605400,-1.00891200
-2.32966968,-0.86283730,-1.02154800,-1.01111000
-2.32866968,-0.86503480,-1.02484400,-1.01654300
-2.32766968,-0.86723230,-1.02814100,-1.01983900
-2.32666968,-0.86942980,-1.03143700,-1.02197500
-2.32566968,-0.87272610,-1.03363400,-1.02527200
-2.32466968,-0.87492370,-1.03583200,-1.02746900
-2.32366968,-0.87931880,-1.03796900,-1.02850700
-2.32266968,-0.88041750,-1.04016600,-1.03070400
-2.32166968,-0.88481260,-1.04126500,-1.03510000
-2.32066968,-0.88371380,-1.04346200,-1.03510000
-2.31966968,-0.89030640,-1.04456100,-1.03833500
-2.31866968,-0.89140520,-1.04785700,-1.03943300
-2.31766968,-0.89476250,-1.05005500,-1.04273000
-2.31666968,-0.89805880,-1.05335100,-1.04596500
-2.31566968,-0.89915760,-1.05445000,-1.04706400
-2.31466968,-0.90135510,-1.05664800,-1.05255800
-2.31366968,-0.90575020,-1.06104300,-1.05469400
-2.31266968,-0.90684900,-1.06214100,-1.05689200
-2.31166968,-0.90904650,-1.06433900,-1.05799000
-2.31066968,-0.91124400,-1.06543800,-1.06122600
-2.30966968,-0.91563910,-1.06653600,-1.06232500
-2.30866968,-0.91673790,-1.06983300,-1.06342300
-2.30766968,-0.91893540,-1.06983300,-1.06562100
-2.30666968,-0.92113290,-1.07093100,-1.06891700
-2.30566968,-0.92223170,-1.07422800,-1.06891700
-2.30466968,-0.92442920,-1.07422800,-1.07105400
-2.30366968,-0.92662680,-1.07642500,-1.07325100
-2.30266968,-0.92992310,-1.07752400,-1.07544900
-2.30166968,-0.93102180,-1.08075900,-1.07544900
-2.30066968,-0.93437920,-1.08075900,-1.07868400
-2.29966968,-0.93547800,-1.08295700,-1.07978300
-2.29866968,-0.93657670,-1.08515400,-1.08307900
-2.29766968,-0.93987300,-1.09064800,-1.08521500
-2.29666968,-0.94097180,-1.09284600,-1.08631400
-2.29566968,-0.94316930,-1.09394500,-1.08961100
-2.29466968,-0.94207050,-1.09614200,-1.09394500
-2.29366968,-0.94536690,-1.09724100,-1.09614200
-2.29266968,-0.94646560,-1.10053700,-1.10053700
-2.29166968,-0.94866320,-1.10383300,-1.10157500
-2.29066968,-0.95086070,-1.10493200,-1.10377200
-2.28966968,-0.95195940,-1.10713000,-1.10487100
-2.28866968,-0.95525570,-1.10822900,-1.10816800
-2.28766968,-0.95415700,-1.10932700,-1.10816800
-2.28666968,-0.95635450,-1.11042600,-1.11030400
-2.28566968,-0.95855210,-1.11152500,-1.11140300
-2.28466968,-0.95855210,-1.11152500,-1.11360000
-2.28366968,-0.96184840,-1.11592000,-1.11360000
-2.28266968,-0.96404590,-1.11592000,-1.11689700
-2.28166968,-0.96404590,-1.11811700,-1.11793400
-2.28066968,-0.96404590,-1.12031500,-1.11903300
-2.27966968,-0.96624340,-1.11921600,-1.12013200
-2.27866968,-0.96514460,-1.12251200,-1.12232900
-2.27766968,-0.96844090,-1.12251200,-1.12342800
-2.27666968,-0.96734220,-1.12464900,-1.12562600
-2.27566968,-0.97063850,-1.12574800,-1.12776200
-2.27466968,-0.97179830,-1.12574800,-1.12886100
-2.27366968,-0.97179830,-1.12794500,-1.12886100
-2.27266968,-0.97399580,-1.12904400,-1.13105800
-2.27166968,-0.97289710,-1.12794500,-1.13105800
-2.27066968,-0.97289710,-1.12904400,-1.13215700
-2.26966968,-0.97619340,-1.12794500,-1.13325600
-2.26866968,-0.97509460,-1.13014300,-1.13325600
-2.26766968,-0.97839090,-1.13234000,-1.13429400
-2.26666968,-0.97839090,-1.13124200,-1.13649100
-2.26566968,-0.97839090,-1.13234000,-1.13539200
-2.26466968,-0.97948970,-1.13234000,-1.13759000
-2.26366968,-0.97729210,-1.13234000,-1.13759000
-2.26266968,-0.97948970,-1.13234000,-1.13649100
-2.26166968,-0.97839090,-1.13343900,-1.13759000
-2.26066968,-0.98168720,-1.13343900,-1.13759000
-2.25966968,-0.98058840,-1.13234000,-1.13868900
-2.25866968,-0.98058840,-1.13234000,-1.13868900
-2.25766968,-0.98168720,-1.13343900,-1.13978800
-2.25666968,-0.98058840,-1.13343900,-1.13868900
-2.25566968,-0.98168720,-1.13124200,-1.13759000
-2.25466968,-0.98388480,-1.13124200,-1.13539200
-2.25366968,-0.98388480,-1.12904400,-1.13649100
-2.25266968,-0.98278590,-1.12794500,-1.13649100
-2.25166968,-0.98388480,-1.12684700,-1.13429400
-2.25066968,-0.98278590,-1.12684700,-1.13325600
-2.24966968,-0.98278590,-1.12574800,-1.13325600
-2.24866968,-0.98278590,-1.12574800,-1.13215700
-2.24766968,-0.98278590,-1.12355000,-1.12996000
-2.24666968,-0.98278590,-1.12251200,-1.12996000
-2.24566968,-0.98498350,-1.12141400,-1.12886100
-2.24466968,-0.98498350,-1.12141400,-1.12886100
-2.24366968,-0.98278590,-1.12031500,-1.12776200
-2.24266968,-0.98168720,-1.11921600,-1.12562600
-2.24166968,-0.98058840,-1.11921600,-1.12562600
-2.24066968,-0.98058840,-1.11592000,-1.12452700
-2.23966968,-0.98168720,-1.11482100,-1.12452700
-2.23866968,-0.98058840,-1.11592000,-1.12342800
-2.23766968,-0.98058840,-1.11262400,-1.12342800
-2.23666968,-0.98058840,-1.11372200,-1.12123100
-2.23566968,-0.98058840,-1.11152500,-1.12123100
-2.23466968,-0.98058840,-1.11042600,-1.12123100
-2.23366968,-0.97729210,-1.10932700,-1.11903300
-2.23266968,-0.97839090,-1.10603100,-1.11903300
-2.23166968,-0.97729210,-1.10493200,-1.11689700
-2.23066968,-0.97839090,-1.10383300,-1.11579800
-2.22966968,-0.97729210,-1.10053700,-1.11360000
-2.22866968,-0.97399580,-1.09943800,-1.11250200
-2.22766968,-0.97399580,-1.09724100,-1.11030400
-2.22666968,-0.97509460,-1.09614200,-1.10706900
-2.22566968,-0.97289710,-1.09504300,-1.10597000
-2.22466968,-0.97289710,-1.09284600,-1.10487100
-2.22366968,-0.97063850,-1.09174700,-1.10377200
-2.22266968,-0.96953970,-1.08955000,-1.10267400
-2.22166968,-0.96953970,-1.08735200,-1.09943800
-2.22066968,-0.96624340,-1.08625300,-1.09724100
-2.21966968,-0.96734220,-1.08295700,-1.09614200
-2.21866968,-0.96514460,-1.08185800,-1.09394500
-2.21766968,-0.96624340,-1.07972200,-1.09290700
-2.21666968,-0.96294710,-1.07752400,-1.09070900
-2.21566968,-0.96074960,-1.07422800,-1.08741300
-2.21466968,-0.95965080,-1.07203000,-1.08307900
-2.21366968,-0.95855210,-1.06873400,-1.08198000
-2.21266968,-0.95745330,-1.06653600,-1.08088100
-2.21166968,-0.95415700,-1.06324000,-1.07654700
-2.21066968,-0.95525570,-1.06214100,-1.07544900
-2.20966968,-0.95525570,-1.05884500,-1.07435000
-2.20866968,-0.95086070,-1.05664800,-1.07105400
-2.20766968,-0.94976190,-1.05335100,-1.06781800
-2.20666968,-0.94976190,-1.05005500,-1.06672000
-2.20566968,-0.94646560,-1.04785700,-1.06232500
-2.20466968,-0.94536690,-1.04456100,-1.05908900
-2.20366968,-0.94536690,-1.04126500,-1.05579300
-2.20266968,-0.94207050,-1.03796900,-1.05255800
-2.20166968,-0.94097180,-1.03363400,-1.04926100
-2.20066968,-0.93877420,-1.02923900,-1.04596500
-2.19966968,-0.93767550,-1.02704200,-1.04163100
-2.19866968,-0.93547800,-1.02264700,-1.03943300
-2.19766968,-0.93212060,-1.01715300,-1.03510000
-2.19666968,-0.92992310,-1.01495500,-1.03290200
-2.19566968,-0.92772560,-1.01056000,-1.02960600
-2.19466968,-0.92552800,-1.00836300,-1.02637000
-2.19366968,-0.92552800,-1.00286900,-1.02197500
-2.19266968,-0.92223170,-0.99957270,-1.01764100
-2.19166968,-0.92003420,-0.99517760,-1.01434500
-2.19066968,-0.91893540,-0.99194230,-1.01111000
-2.18966968,-0.91454040,-0.98754730,-1.00781300
-2.18866968,-0.91234280,-0.98315220,-1.00128200
-2.18766968,-0.91124400,-0.97985590,-0.99908440
-2.18666968,-0.91014530,-0.97436210,-0.99475030
-2.18566968,-0.91014530,-0.97106580,-0.99255280
-2.18466968,-0.90355270,-0.96776950,-0.98712000
-2.18366968,-0.90355270,-0.96447320,-0.98492250
-2.18266968,-0.89915760,-0.96007810,-0.98162620
-2.18166968,-0.89696010,-0.95678180,-0.97619340
-2.18066968,-0.89476250,-0.95238670,-0.97179830
-2.17966968,-0.89360270,-0.94915150,-0.96856300
-2.17866968,-0.88810890,-0.94475640,-0.96416800
-2.17766968,-0.88701010,-0.93926260,-0.95983400
-2.17666968,-0.88371380,-0.93486750,-0.95763640
-2.17566968,-0.88261500,-0.93047240,-0.95220360
-2.17466968,-0.87822000,-0.92497860,-0.94670980
-2.17366968,-0.87602250,-0.92168230,-0.94237580
-2.17266968,-0.87272610,-0.91838600,-0.94017820
-2.17166968,-0.87272610,-0.91399100,-0.93474540
-2.17066968,-0.86723230,-0.90959590,-0.92931260
-2.16966968,-0.86173850,-0.90306430,-0.92601630
-2.16866968,-0.86173850,-0.89757050,-0.92058350
-2.16766968,-0.85734340,-0.89427420,-0.91618850
-2.16666968,-0.85398610,-0.88878040,-0.91185440
-2.16566968,-0.85178850,-0.88438530,-0.90636060
-2.16466968,-0.84739350,-0.87999020,-0.90202660
-2.16366968,-0.84739350,-0.87449640,-0.89659380
-2.16266968,-0.84299840,-0.87010130,-0.89329750
-2.16166968,-0.83970210,-0.86460750,-0.88896350
-2.16066968,-0.83530700,-0.86137220,-0.88456840
-2.15966968,-0.83420830,-0.85697720,-0.88023440
-2.15866968,-0.83091200,-0.85258210,-0.87693810
-2.15766968,-0.82651690,-0.84708830,-0.87040650
-2.15666968,-0.82322060,-0.84159440,-0.86497370
-2.15566968,-0.81992430,-0.83719930,-0.86167740
-2.15466968,-0.81546820,-0.83170550,-0.85728240
-2.15366968,-0.81217190,-0.82621170,-0.84965210
-2.15266969,-0.80887560,-0.82181660,-0.84641680
-2.15166969,-0.80667810,-0.81748260,-0.84092300
-2.15066969,-0.80338170,-0.81198880,-0.83658890
-2.14966969,-0.79788790,-0.80869250,-0.83225490
-2.14866969,-0.79569040,-0.80209980,-0.82676110
-2.14766969,-0.79239410,-0.79660600,-0.82132830
-2.14666969,-0.78799900,-0.79111220,-0.81693320
-2.14566969,-0.78360400,-0.78671710,-0.81150040
-2.14466969,-0.77811010,-0.78122330,-0.80496880
-2.14366969,-0.77585150,-0.77579050,-0.80057380
-2.14266969,-0.77145650,-0.77139540,-0.79514100
-2.14166969,-0.76816020,-0.76370410,-0.78860940
-2.14066969,-0.76266630,-0.75821020,-0.78421440
-2.13966969,-0.76156760,-0.75491390,-0.77878160
-2.13866969,-0.75717250,-0.74722250,-0.77334880
-2.13766969,-0.75167860,-0.74172870,-0.76681720
-2.13666969,-0.74948110,-0.73513610,-0.76132340
-2.13566969,-0.74508610,-0.73080210,-0.75698940
-2.13466969,-0.73959220,-0.72420950,-0.75149550
-2.13366969,-0.73623490,-0.71981440,-0.74716150
-2.13266969,-0.73293860,-0.71322180,-0.74172870
-2.13166969,-0.72744480,-0.70882680,-0.73623490
-2.13066969,-0.72195090,-0.70662920,-0.73080210
-2.12966969,-0.72085210,-0.69893780,-0.72427050
-2.12866969,-0.71535830,-0.69234530,-0.71987550
-2.12766969,-0.71096320,-0.68691250,-0.71554140
-2.12666969,-0.70656820,-0.68141860,-0.70900990
-2.12566969,-0.70107440,-0.67702350,-0.70241730
-2.12466969,-0.69881580,-0.67043100,-0.69808330
-2.12366969,-0.69332190,-0.66493710,-0.69374920
-2.12266969,-0.68892690,-0.65944330,-0.68825540
-2.12166969,-0.68563060,-0.65175190,-0.68282260
-2.12066969,-0.68123550,-0.64741790,-0.67519230
-2.11966969,-0.67684040,-0.64192400,-0.67079720
-2.11866969,-0.67244540,-0.63643020,-0.66536440
-2.11766969,-0.66695150,-0.62983760,-0.65883280
-2.11666969,-0.66475400,-0.62434380,-0.65333900
-2.11566969,-0.65810040,-0.61884990,-0.64680740
-2.11466969,-0.65260650,-0.61335610,-0.63917710
-2.11366969,-0.64821140,-0.60676350,-0.63264560
-2.11266969,-0.64271760,-0.60023190,-0.62934930
-2.11166969,-0.63832250,-0.59363940,-0.62171890
-2.11066969,-0.63392750,-0.58814550,-0.61628620
-2.10966969,-0.62953240,-0.58155290,-0.61195210
-2.10866969,-0.62293980,-0.57605910,-0.60645830
-2.10766969,-0.61848370,-0.56946650,-0.59882800
-2.10666969,-0.61518740,-0.56397270,-0.59449390
-2.10566969,-0.61189110,-0.55744110,-0.58900010
-2.10466969,-0.60529850,-0.55194720,-0.58246860
-2.10366969,-0.60090340,-0.54645340,-0.57703580
-2.10266969,-0.59650840,-0.54095960,-0.57160290
-2.10166969,-0.59101450,-0.53436700,-0.56501040
-2.10066969,-0.58552070,-0.52667560,-0.55738000
-2.09966969,-0.58106460,-0.52118180,-0.55084850
-2.09866969,-0.57337320,-0.51574900,-0.54431690
-2.09766969,-0.57007690,-0.50805760,-0.54102060
-2.09666969,-0.56568180,-0.50256380,-0.53119280
-2.09566969,-0.56128670,-0.49597120,-0.52576000
-2.09466969,-0.55689170,-0.49047740,-0.52142600
-2.09366969,-0.55139790,-0.48388480,-0.51593210
-2.09266969,-0.54590400,-0.47839090,-0.51049930
-2.09166969,-0.54034910,-0.47405690,-0.50506650
-2.09066969,-0.53485530,-0.46746430,-0.49957270
-2.08966969,-0.52936150,-0.46306920,-0.49413990
-2.08866969,-0.52386770,-0.45757540,-0.48760830
-2.08766969,-0.51727500,-0.45098280,-0.48107680
