Frequency,Channel A,Channel B,Channel C
(ms),(V),(V),(V)

-10.00361778,-0.02182273,0.00534123,-0.05112318
-10.00161778,-0.01358198,0.01342937,-0.04578196
-9.99961778,0.00000000,0.02151752,-0.03769381
-9.99761778,0.00808815,0.02960566,-0.03235258
-9.99561778,0.02167013,0.03509950,-0.02426444
-9.99361778,0.03250519,0.03769381,-0.01617629
-9.99161778,0.04334025,0.04318764,-0.01083506
-9.98961778,0.05417531,0.05402271,-0.00274692
-9.98761778,0.06501038,0.06211085,0.00534123
-9.98561778,0.07584544,0.04044073,0.01068246
-9.98361778,0.08668050,0.07554023,0.01602368
-9.98161778,0.09751557,0.08103406,0.02411183
-9.97961778,0.10835060,0.09446344,0.03219998
-9.97761778,0.12452690,0.10255160,0.04013551
-9.97561778,0.13276770,0.10804540,0.04822366
-9.97361778,0.14634970,0.11063970,0.05905872
-9.97161778,0.15443780,0.12147480,0.06439995
-9.96961778,0.16527290,0.11613360,0.07248810
-9.96761778,0.17885480,0.14039800,0.08042364
-9.96561778,0.18694300,0.14573920,0.08851178
-9.96361778,0.20052500,0.15382740,0.09659992
-9.96161778,0.21410690,0.13765110,0.11002930
-9.95961778,0.22494200,0.17549750,0.11537050
-9.95761778,0.23303020,0.18633260,0.12879990
-9.95561778,0.24386520,0.19167380,0.13688800
-9.95361778,0.25470030,0.20525580,0.14222930
-9.95161778,0.26553540,0.21334390,0.15565860
-9.94961778,0.27637040,0.22952020,0.16649370
-9.94761778,0.28995240,0.24035530,0.17717620
-9.94561778,0.30078740,0.25653160,0.18785860
-9.94361778,0.31162250,0.25927850,0.20403490
-9.94161778,0.31971060,0.27011350,0.21746430
-9.93961778,0.33329260,0.36732390,0.22280550
-9.93761778,0.34412770,0.29971920,0.23623490
-9.93561778,0.35221580,0.30780740,0.24966430
-9.93361778,0.36305090,0.31864240,0.26309370
-9.93161778,0.37388600,0.33222440,0.27926990
-9.92961778,0.38487360,0.35648880,0.29529360
-9.92761778,0.39570870,0.36183010,0.30872300
-9.92561778,0.40654380,0.37815900,0.32215230
-9.92361778,0.41737880,0.39708210,0.33024050
-9.92161778,0.42821390,0.39967650,0.34366990
-9.91961778,0.43630200,0.41859970,0.35709920
-9.91761778,0.44713710,0.43477600,0.37586980
-9.91561778,0.44988400,0.45644610,0.39204620
-9.91361778,0.46606030,0.45919300,0.41356370
-9.91161778,0.47689540,0.48345740,0.42958730
-9.90961778,0.49047740,0.50238070,0.45110490
-9.90761778,0.49597120,0.52939200,0.47262240
-9.90561778,0.50680630,0.57807350,0.52099870
-9.90361778,0.51489440,0.62934930,0.57471620
-9.90161778,0.52572950,0.67787810,0.62293980
-9.89961778,0.53656450,0.72121840,0.65788670
-9.89761778,0.54205830,0.74548290,0.69008670
-9.89561778,0.55548780,0.76974730,0.71969230
-9.89361778,0.55548780,0.67787810,0.73846290
-9.89161778,0.57181660,0.81568180,0.75998040
-9.88961778,0.58265170,0.83460500,0.78409230
-9.88761778,0.59348670,0.85886950,0.80286290
-9.88561778,0.60157490,0.86711030,0.81629230
-9.88361778,0.60981570,0.86970450,0.82972160
-9.88161778,0.61790380,0.89671590,0.84589790
-9.87961778,0.62599190,0.91838600,0.86741540
-9.87761778,0.63682700,0.94265040,0.88618610
-9.87561778,0.64506780,0.95348550,0.90495660
-9.87361778,0.65315590,0.96966180,0.92113290
-9.87161778,0.66399100,0.98583810,0.93990360
-9.86961778,0.69374920,1.07770700,0.95867410
-9.86761778,0.67757300,1.02368500,0.97744480
-9.86561778,0.68566110,1.03986100,0.99362110
-9.86361778,0.69374920,1.07236600,1.02582100
-9.86161778,0.70458430,1.10746600,1.06076800
-9.85961778,0.71007810,1.14256500,1.09296800
-9.85761778,0.71816630,1.15874100,1.11448500
-9.85561778,0.72625440,1.17766500,1.13600300
-9.85361778,0.73449520,1.19933500,1.16011500
-9.85161778,0.73983640,1.22634600,1.18163200
-9.84961778,0.74792460,1.24252200,1.20574400
-9.84761778,0.76425340,1.37483200,1.22451500
-9.84561778,0.76150650,1.28845700,1.24343800
-9.84361778,0.76974730,1.31012700,1.26755000
-9.84161778,0.77508850,1.33164400,1.28906700
-9.83961778,0.78317670,1.35056800,1.31058500
-9.83761778,0.78867050,1.37223800,1.33744300
-9.83561778,0.79675870,1.39650200,1.35621400
-9.83361778,0.80484680,1.41267800,1.37773200
-9.83161778,0.81034060,1.42626000,1.39650200
-9.82961778,0.81568180,1.44518400,1.41527300
-9.82761778,0.82392260,1.47753600,1.43404300
-9.82561778,0.82926380,1.49920600,1.45830800
-9.82361778,0.81034060,1.63426300,1.47433200
-9.82161778,0.84009890,1.52881200,1.49310200
-9.81961778,0.84559270,1.55048200,1.51202500
-9.81761778,0.85093390,1.56665800,1.53339000
-9.81561778,0.85917470,1.58283500,1.54682000
-9.81361778,0.86176900,1.59641700,1.56024900
-9.81161778,0.86726280,1.61534000,1.57902000
-9.80961778,0.87260410,1.63151600,1.59794300
-9.80761778,0.87809790,1.65044000,1.61396600
-9.80561778,0.88359170,1.65578100,1.63014300
-9.80361778,0.88618610,1.67745100,1.64616600
-9.80161778,0.89702110,1.68019800,1.65959600
-9.79961778,0.89702110,1.71529700,1.68111300
-9.79761778,0.89976800,1.72872700,1.69454300
-9.79561778,0.90526190,1.73681500,1.71071900
-9.79361778,0.91060310,1.75573800,1.72414800
-9.79161779,0.91335000,1.76932000,1.74017200
-9.78961779,0.91609690,1.78274900,1.75100700
-9.78761779,0.92143820,1.78824300,1.76443700
-9.78561779,0.92693200,1.80976100,1.77511900
-9.78361779,0.92952630,1.81784900,1.78595400
-9.78161779,0.92952630,1.82334300,1.79663700
-9.77961779,0.93502010,1.83417800,1.80731900
-9.77761779,0.93502010,1.83677200,1.82074800
-9.77561779,0.94310830,1.85844200,1.83158300
-9.77361779,0.94585520,1.86653000,1.83692500
-9.77161779,0.94585520,1.87187200,1.85035400
-9.76961779,0.95394330,1.88545300,1.85569500
-9.76761779,0.95394330,1.89888300,1.86653000
-9.76561779,0.95669030,1.90712400,1.87721300
-9.76361779,0.95669030,1.90971800,1.88530100
-9.76161779,0.95943720,1.91521200,1.89064200
-9.75961779,0.95943720,1.92864100,1.90681800
-9.75761779,0.96218410,1.95031100,1.92558900
-9.75561779,0.96477840,1.99624600,1.94161300
-9.75361779,0.96477840,1.97732300,1.95778900
-9.75161779,0.96477840,1.99075200,1.97656000
-9.74961779,0.96752530,2.01776300,1.99533000
-9.74761779,0.96752530,2.03134500,2.01150700
-9.74561779,0.97027220,2.04477500,2.02218900
-9.74361779,0.97027220,2.05286300,2.03561800
-9.74161779,0.97027220,2.06919200,2.05179500
-9.73961779,0.97301910,2.06644500,2.05988300
-9.73761779,0.97301910,2.09345600,2.07056500
-9.73561779,0.97027220,2.10429100,2.08124800
-9.73361779,0.97027220,2.10688600,2.09467700
-9.73161779,0.97027220,2.12321400,2.10551200
-9.72961779,0.97027220,2.13130300,2.11619400
-9.72761779,0.96752530,2.13389700,2.12153600
-9.72561779,0.97027220,2.13939100,2.12703000
-9.72361779,0.96752530,2.13939100,2.12962400
-9.72161779,0.97027220,2.15022600,2.13496500
-9.71961779,0.96477840,2.15282000,2.14045900
-9.71761779,0.96477840,2.16090800,2.14045900
-9.71561779,0.96477840,2.15282000,2.14580000
-9.71361779,0.96477840,2.16365500,2.14839500
-9.71161779,0.96218410,2.16090800,2.14839500
-9.70961779,0.94585520,2.04218000,2.14839500
-9.70761779,0.95943720,2.15282000,2.14305300
-9.70561779,0.95943720,2.14473200,2.13771200
-9.70361779,0.95669030,2.15282000,2.13771200
-9.70161779,0.95394330,2.14747900,2.13771200
-9.69961779,0.95134900,2.15022600,2.13771200
-9.69761779,0.95134900,2.13939100,2.12962400
-9.69561779,0.94860210,2.13664400,2.12962400
-9.69361779,0.94585520,2.17983200,2.12703000
-9.69161779,0.94036140,2.13389700,2.11894200
-9.68961779,0.94036140,2.12855600,2.11894200
-9.68761779,0.93502010,2.11772100,2.11619400
-9.68561779,0.93227320,2.12580900,2.11360000
-9.68361779,0.92952630,2.11772100,2.10810600
-9.68161779,0.92418500,2.10963200,2.10551200
-9.67961779,0.92143820,2.10154400,2.09742400
-9.67761779,0.91609690,2.08262100,2.08674100
-9.67561779,0.91335000,2.08262100,2.07865300
-9.67361779,0.91060310,2.07728000,2.07056500
-9.67161779,0.90526190,2.07453300,2.06522400
-9.66961779,0.90251490,2.09345600,2.05713600
-9.66761779,0.89702110,2.05561000,2.05179500
-9.66561779,0.89442680,2.05026900,2.04370600
-9.66361779,0.88893290,2.04752200,2.03561800
-9.66161779,0.88359170,2.02585100,2.02493600
-9.65961779,0.87809790,2.01242200,2.01410100
-9.65761779,0.87260410,2.00967500,2.00341800
-9.65561779,0.87000980,1.99884000,1.99533000
-9.65361779,0.86176900,1.98266400,1.98190100
-9.65161779,0.85917470,1.97457600,1.97121800
-9.64961779,0.85368080,1.96114600,1.96053600
-9.64761779,0.84559270,1.88545300,1.94970100
-9.64561779,0.84009890,1.93672900,1.93627100
-9.64361779,0.84009890,1.92864100,1.92558900
-9.64161779,0.83475760,1.91246500,1.90941300
-9.63961779,0.82392260,1.90437700,1.90132500
-9.63761779,0.81842880,1.89079500,1.89064200
-9.63561779,0.81034060,1.87736500,1.87721300
-9.63361779,0.80225250,1.85844200,1.85844200
-9.63161779,0.79675870,1.85844200,1.84501300
-9.62961779,0.79141740,1.82868400,1.82883600
-9.62761779,0.78592350,1.81525500,1.81540700
-9.62561779,0.77783540,1.79892600,1.79938300
-9.62361779,0.77508850,1.75314400,1.78595400
-9.62161779,0.76425340,1.76932000,1.76977800
-9.61961779,0.75891220,1.75573800,1.75634800
-9.61761779,0.74792460,1.73681500,1.74017200
-9.61561779,0.74533020,1.71529700,1.71880700
-9.61361779,0.73449520,1.69637400,1.70537800
-9.61161779,0.72625440,1.68828600,1.68920200
-9.60961779,0.72091320,1.68019800,1.67577200
-9.60761779,0.71282510,1.66127500,1.65959600
-9.60561779,0.70458430,1.63426300,1.64082500
-9.60361779,0.69649610,1.62068100,1.62739600
-9.60161779,0.68840800,1.60725200,1.60587800
-9.59961779,0.68016730,1.58283500,1.58710800
-9.59761779,0.67207910,1.56391200,1.56833700
-9.59561779,0.66124400,1.54514100,1.54956700
-9.59361779,0.65590280,1.52881200,1.53339000
-9.59161779,0.64766200,1.51538300,1.51462000
-9.58961779,0.63957390,1.49645900,1.49584900
-9.58761779,0.62873890,1.46944800,1.47707800
-9.58561779,0.62065070,1.43160200,1.45556100
-9.58361779,0.60981570,1.43160200,1.43404300
-9.58161779,0.60157490,1.41267800,1.41527300
-9.57961779,0.59348670,1.39116100,1.39909600
-9.57761779,0.58265170,1.37483200,1.37498500
-9.57561779,0.57456360,1.34782100,1.35880800
-9.57361779,0.56372850,1.32889800,1.33744300
-9.57161779,0.55823460,1.31012700,1.31592600
-9.56961779,0.54739960,1.28845700,1.28906700
-9.56761779,0.53656450,1.26419200,1.26755000
-9.56561779,0.52847640,1.25061000,1.24877900
-9.56361779,0.51764130,1.23168700,1.23260300
-9.56161779,0.50955310,1.20208200,1.20849100
-9.55961779,0.49856550,1.18041100,1.18972000
-9.55761779,0.48773040,1.16423500,1.16545600
-9.55561779,0.48238920,1.11555400,1.14409100
-9.55361779,0.46880720,1.11280700,1.11982700
-9.55161779,0.45797220,1.09388400,1.09830900
-9.54961779,0.44988400,1.07236600,1.07694400
-9.54761779,0.43904890,1.05069600,1.05542700
-9.54561779,0.43080820,1.02368500,1.03390900
-9.54361779,0.41737880,1.00216700,1.01239200
-9.54161779,0.40654380,0.98324380,0.99087410
-9.53961779,0.39830300,0.95348550,0.96401540
-9.53761779,0.38487360,0.93181540,0.93990360
-9.53561779,0.37663290,0.91563910,0.91838600
-9.53361779,0.36579780,0.89671590,0.89961540
-9.53161779,0.35496280,0.84818700,0.87550360
-9.52961779,0.34412770,0.84544010,0.85398610
-9.52761779,0.33603950,0.82377000,0.82972160
-9.52561779,0.32520450,0.79950550,0.80286290
-9.52361779,0.31711630,0.76974730,0.78149800
-9.52161779,0.30353440,0.75631790,0.75723360
-9.51961779,0.29269930,0.72930650,0.73312170
-9.51761779,0.28445850,0.70763640,0.71435110
-9.51561779,0.27102920,0.67787810,0.69008670
-9.51361779,0.25744720,0.65910760,0.66872170
-9.51161779,0.24920640,0.63743740,0.64445730
-9.50961779,0.23837140,0.59424980,0.61759860
-9.50761779,0.22494200,0.59150280,0.59348670
-9.50561779,0.21670130,0.56983270,0.57196920
-9.50361779,0.20861310,0.54556830,0.55045170
-9.50161779,0.19503110,0.52405080,0.52633990
-9.49961779,0.18144910,0.49963370,0.50482240
-9.49761779,0.17061410,0.47262240,0.47796360
-9.49561779,0.15977900,0.45110490,0.45385180
-9.49361779,0.14894400,0.41585280,0.42699300
-9.49161779,0.13810890,0.39967650,0.40547550
-9.48961779,0.12727380,0.37815900,0.38395800
-9.48761779,0.11918570,0.35114760,0.35984620
-9.48561779,0.10835060,0.37541200,0.33558170
-9.48361779,0.09476864,0.30521300,0.31421680
-9.48161779,0.08393358,0.28628980,0.28995240
-9.47961779,0.07584544,0.25378460,0.26309370
-9.47761779,0.06226346,0.23501400,0.23898180
-9.47561779,0.04868148,0.21334390,0.21746430
-9.47361779,0.04059333,0.18907950,0.19594680
-9.47161779,0.02975827,0.17015630,0.17183490
-9.46961779,0.01892321,0.14039800,0.14497620
-9.46761779,0.00808815,0.12147480,0.12620560
-9.46561779,-0.00549384,0.09171651,0.09659992
-9.46361779,-0.01098767,0.07279330,0.07248810
-9.46161779,-0.02441704,0.05127579,0.05097058
-9.45961779,-0.03799902,0.02701135,0.02945306
-9.45761779,-0.04883409,0.00808815,0.00793554
-9.45561779,-0.05966915,-0.01632890,-0.01342937
-9.45361779,-0.07050421,-0.03784642,-0.03769381
-9.45161779,-0.08133927,-0.06485777,-0.06180564
-9.44961779,-0.09217434,-0.08652790,-0.08607008
-9.44761779,-0.10300940,-0.13520940,-0.11018190
-9.44561779,-0.11384450,-0.13246250,-0.13429370
-9.44361779,-0.12467950,-0.15672690,-0.15581130
-9.44161779,-0.13292030,-0.17839700,-0.17732880
-9.43961779,-0.14100840,-0.23241970,-0.20144060
-9.43761779,-0.15459040,-0.22158470,-0.22295810
-9.43561779,-0.16542550,-0.24584910,-0.24722260
-9.43361779,-0.17626050,-0.27026610,-0.27133440
-9.43161779,-0.18709560,-0.29178370,-0.29544620
-9.42961779,-0.19793060,-0.31345380,-0.31696370
-9.42761779,-0.20876570,-0.33771820,-0.33848120
-9.42561779,-0.21960080,-0.35938840,-0.35999880
-9.42361779,-0.22768890,-0.37831150,-0.38411060
-9.42161779,-0.23852400,-0.40791720,-0.40562810
-9.41961779,-0.24676470,-0.42958730,-0.42974000
-9.41761779,-0.25485290,-0.43233430,-0.45659870
-9.41561779,-0.27118180,-0.47826880,-0.48086310
-9.41361779,-0.27926990,-0.49719200,-0.49963370
-9.41161779,-0.29010500,-0.51596270,-0.51840440
-9.40961779,-0.30094000,-0.53229150,-0.53992190
-9.40761779,-0.31177510,-0.55655600,-0.56403370
-9.40561779,-0.31726890,-0.57822610,-0.58555120
-9.40361779,-0.32810400,-0.60523740,-0.60706870
-9.40161779,-0.33893910,-0.61332560,-0.63392750
-9.39961779,-0.34977410,-0.65651320,-0.65269810
-9.39761779,-0.35786230,-0.66734830,-0.67421560
-9.39561779,-0.36869730,-0.69695400,-0.69573310
-9.39361779,-0.37953240,-0.64567820,-0.71450370
-9.39161779,-0.38502620,-0.73220600,-0.73861550
-9.38961779,-0.39586130,-0.75647050,-0.76013310
-9.38761779,-0.40669640,-0.77539370,-0.78165060
-9.38561779,-0.41203760,-0.80240510,-0.80301550
-9.38361779,-0.42287270,-0.81583450,-0.82453300
-9.38161779,-0.43096080,-0.83475760,-0.84330360
-9.37961779,-0.44194850,-0.85368080,-0.86482110
-9.37761779,-0.45003660,-0.88069220,-0.88633870
-9.37561779,-0.45812480,-0.89427420,-0.90510920
-9.37361779,-0.46621290,-0.91853860,-0.92387990
-9.37161779,-0.47445370,-0.90236230,-0.95073860
-9.36961779,-0.48528870,-0.95638500,-0.96691490
-9.36761779,-0.49062990,-0.97790250,-0.98568550
-9.36561779,-0.49871810,-0.98873760,-1.00445600
-9.36361779,-0.50695880,-1.01040800,-1.02063200
-9.36161779,-0.51779390,-1.02658400,-1.03940300
-9.35961779,-0.52313510,-1.04825400,-1.05817400
-9.35761779,-0.53397020,-1.06977200,-1.07435000
-9.35561779,-0.53946410,-1.09678300,-1.09312000
-9.35361779,-0.54755220,-1.10227700,-1.11189100
-9.35161779,-0.55304600,-1.11570600,-1.13081400
-9.34961779,-0.55838720,-1.13462900,-1.14424400
-9.34761779,-0.56922230,-1.13737600,-1.16301400
-9.34561779,-0.57746300,-1.16438800,-1.17903800
-9.34361779,-0.58280430,-1.17781700,-1.19521400
-9.34161779,-0.58829810,-1.19948700,-1.21123800
-9.33961779,-0.59913320,-1.21032200,-1.23016100
-9.33761779,-0.60447440,-1.23184000,-1.24359000
-9.33561779,-0.61256250,-1.23458700,-1.25427300
-9.33361779,-0.61530950,-1.24801600,-1.26495500
-9.33161779,-0.62339760,-1.25351000,-1.27304400
-9.32961779,-0.62889150,-1.27243300,-1.28922000
-9.32761779,-0.63697960,-1.28326800,-1.29990200
-9.32561779,-0.64522030,-1.30753300,-1.31073700
-9.32361779,-0.64781470,-1.29944400,-1.32142000
-9.32161779,-0.65605540,-1.30478600,-1.32676100
-9.31961779,-0.66414360,-1.30753300,-1.33210200
-9.31761779,-0.66689050,-1.30753300,-1.32950800
-9.31561779,-0.67223170,-1.31028000,-1.33210200
-9.31361779,-0.67772560,-1.30753300,-1.32950800
-9.31161779,-0.68306680,-1.31287400,-1.33210200
-9.30961779,-0.69115490,-1.30753300,-1.33759600
-9.30761779,-0.69664880,-1.31287400,-1.34019000
-9.30561779,-0.69939570,-1.31028000,-1.33759600
-9.30361779,-0.70473690,-1.30753300,-1.33484900
-9.30161779,-0.70473690,-1.29944400,-1.32950800
-9.29961779,-0.71557190,-1.30478600,-1.32416700
-9.29761779,-0.71831890,-1.30203900,-1.32142000
-9.29561779,-0.72106580,-1.29669800,-1.31867300
-9.29361779,-0.72640710,-1.30203900,-1.31867300
-9.29161779,-0.73190090,-1.29135600,-1.32142000
-9.28961779,-0.73464780,-1.29135600,-1.31607900
-9.28761779,-0.73724210,-1.28326800,-1.31333200
-9.28561779,-0.74548290,-1.28326800,-1.30524300
-9.28361779,-0.74548290,-1.26968600,-1.29730800
-9.28161779,-0.75082410,-1.25885100,-1.28647300
-9.27961779,-0.75357100,-1.30203900,-1.27838500
-9.27761779,-0.75906480,-1.24801600,-1.27304400
-9.27561779,-0.76165910,-1.24267500,-1.26770200
-9.27361779,-0.76440600,-1.23992800,-1.26236100
-9.27161779,-0.76715300,-1.23184000,-1.25702000
-9.26961779,-0.76715300,-1.22649900,-1.25427300
-9.26761779,-0.77249420,-1.22649900,-1.25152600
-9.26561779,-0.77249420,-1.21841000,-1.24893200
-9.26361779,-0.77249420,-1.22375200,-1.24084400
-9.26161779,-0.78073500,-1.19948700,-1.22741400
-9.25961779,-0.78073500,-1.17781700,-1.20864400
-9.25761779,-0.78332920,-1.15355300,-1.18437900
-9.25561779,-0.78073500,-1.15080600,-1.15767300
-9.25361779,-0.78607620,-1.09678300,-1.13081400
-9.25161779,-0.78882310,-1.07786000,-1.10395600
-9.24961779,-0.78882310,-1.05084800,-1.07969100
-9.24761779,-0.78882310,-1.02658400,-1.05557900
-9.24561779,-0.79157000,-0.99957270,-1.03406200
-9.24361779,-0.79416430,-0.97790250,-1.01254400
-9.24161779,-0.79416430,-0.95638500,-0.99102670
-9.23961779,-0.79416430,-0.94280310,-0.97500310
-9.23761779,-0.79416430,-0.93471490,-0.96157370
-9.23561779,-0.79691120,-0.92128560,-0.94814430
-9.23361779,-0.79691120,-0.90495660,-0.94280310
-9.23161779,-0.79691120,-0.89961540,-0.93471490
-9.22961779,-0.79691120,-0.89152730,-0.92937370
-9.22761779,-0.79416430,-0.88603340,-0.92387990
-9.22561779,-0.79416430,-0.88343910,-0.91319740
-9.22361779,-0.79416430,-0.86451590,-0.89976800
-9.22161779,-0.79157000,-0.85642780,-0.88908560
-9.21961779,-0.79416430,-0.84559270,-0.87565620
-9.21761779,-0.79416430,-0.82941640,-0.87016240
-9.21561779,-0.79157000,-0.82941640,-0.86482110
-9.21361779,-0.78882310,-0.82392260,-0.85947990
-9.21161779,-0.78882310,-0.81858130,-0.85413870
-9.20961779,-0.78882310,-0.81049320,-0.84879740
-9.20761779,-0.78607620,-0.81324010,-0.84605050
-9.20561779,-0.78332920,-0.80499940,-0.84605050
-9.20361779,-0.78332920,-0.80240510,-0.83796240
-9.20161779,-0.77798800,-0.79691120,-0.83536810
-9.19961779,-0.77798800,-0.79431690,-0.82727990
-9.19761779,-0.77249420,-0.78348180,-0.82453300
-9.19561779,-0.77524110,-0.78073500,-0.81385060
-9.19361779,-0.76989990,-0.77264680,-0.81644490
-9.19161779,-0.76715300,-0.77539370,-0.81110360
-9.18961779,-0.76440600,-0.77264680,-0.80850930
-9.18761779,-0.76440600,-0.73220600,-0.80576240
-9.18561779,-0.75631790,-0.75647050,-0.80301550
-9.18361779,-0.75631790,-0.76181170,-0.79767420
-9.18161779,-0.75357100,-0.75097670,-0.78958610
-9.17961779,-0.74548290,-0.74563540,-0.78699180
-9.17761779,-0.74548290,-0.74288850,-0.77890370
-9.17561779,-0.74273590,-0.73220600,-0.77630940
-9.17361779,-0.73464780,-0.73480040,-0.77356240
-9.17161779,-0.73190090,-0.72945920,-0.76822120
-9.16961779,-0.72915390,-0.71862410,-0.75738610
-9.16761779,-0.72381270,-0.71053590,-0.75479190
-9.16561779,-0.71831890,-0.70519470,-0.74670370
-9.16361779,-0.71297760,-0.69970090,-0.74136250
-9.16161779,-0.71023070,-0.69970090,-0.73602120
-9.15961779,-0.70748380,-0.68352460,-0.72518620
-9.15761779,-0.70214260,-0.60249050,-0.71984490
-9.15561779,-0.69664880,-0.66994260,-0.71450370
-9.15361779,-0.68856060,-0.65926020,-0.70366870
-9.15161779,-0.68306680,-0.65101940,-0.69832740
-9.14961779,-0.67772560,-0.64293130,-0.68764500
-9.14761779,-0.67223170,-0.64033690,-0.68230370
-9.14561779,-0.66689050,-0.62400810,-0.67146870
-9.14361779,-0.66139660,-0.61591990,-0.66078620
-9.14161779,-0.65605540,-0.53763280,-0.65269810
